# Wave/freq Total
4.500000000e+00  1.7351964e-14
4.500030000e+00  3.3937328e-14
4.500060000e+00  6.4933157e-14
4.500090001e+00  1.2161545e-13
4.500120001e+00  2.2310902e-13
4.500150002e+00  4.0116155e-13
4.500180003e+00  7.0738607e-13
4.500210004e+00  1.2240071e-12
4.500240006e+00  2.0794525e-12
4.500270007e+00  3.4705216e-12
4.500300009e+00  5.6931916e-12
4.500330011e+00  9.1844213e-12
4.500360013e+00  1.4572693e-11
4.500390016e+00  2.2762820e-11
4.500420018e+00  3.5009965e-11
4.500450021e+00  5.3036500e-11
4.500480024e+00  7.9157182e-11
4.500510027e+00  1.1642193e-10
4.500540031e+00  1.6877186e-10
4.500570034e+00  2.4121021e-10
4.500600038e+00  3.4000201e-10
4.500630042e+00  4.7293842e-10
4.500660046e+00  6.4972148e-10
4.500690051e+00  8.8255738e-10
4.500720055e+00  1.1870276e-09
4.500750060e+00  1.5832614e-09
4.500780065e+00  2.0973188e-09
4.500810070e+00  2.7625859e-09
4.500840076e+00  3.6208586e-09
4.500870081e+00  4.7227599e-09
4.500900087e+00  6.1273990e-09
4.500930093e+00  7.9013079e-09
4.500960099e+00  1.0117062e-08
4.500990106e+00  1.2852130e-08
4.501020112e+00  1.6188442e-08
4.501050119e+00  2.0212958e-08
4.501080126e+00  2.5019161e-08
4.501110133e+00  3.0709300e-08
4.501140141e+00  3.7396926e-08
4.501170148e+00  4.5209661e-08
4.501200156e+00  5.4291911e-08
4.501230164e+00  6.4807233e-08
4.501260172e+00  7.6939774e-08
4.501290181e+00  9.0894011e-08
4.501320189e+00  1.0689215e-07
4.501350198e+00  1.2516916e-07
4.501380207e+00  1.4596653e-07
4.501410216e+00  1.6952655e-07
4.501440226e+00  1.9608938e-07
4.501470235e+00  2.2589439e-07
4.501500245e+00  2.5918563e-07
4.501530255e+00  2.9621958e-07
4.501560265e+00  3.3727200e-07
4.501590276e+00  3.8264078e-07
4.501620286e+00  4.3264293e-07
4.501650297e+00  4.8760619e-07
4.501680308e+00  5.4785785e-07
4.501710319e+00  6.1371424e-07
4.501740331e+00  6.8547446e-07
4.501770342e+00  7.6341966e-07
4.501800354e+00  8.4781749e-07
4.501830366e+00  9.3892940e-07
4.501860378e+00  1.0370179e-06
4.501890391e+00  1.1423514e-06
4.501920403e+00  1.2552060e-06
4.501950416e+00  1.3758638e-06
4.501980429e+00  1.5046088e-06
4.502010442e+00  1.6417230e-06
4.502040456e+00  1.7874815e-06
4.502070469e+00  1.9421493e-06
4.502100483e+00  2.1059786e-06
4.502130497e+00  2.2792074e-06
4.502160511e+00  2.4620588e-06
4.502190526e+00  2.6547412e-06
4.502220540e+00  2.8574484e-06
4.502250555e+00  3.0703609e-06
4.502280570e+00  3.2936461e-06
4.502310585e+00  3.5274591e-06
4.502340601e+00  3.7719415e-06
4.502370616e+00  4.0272212e-06
4.502400632e+00  4.2934102e-06
4.502430648e+00  4.5706031e-06
4.502460664e+00  4.8588742e-06
4.502490681e+00  5.1582760e-06
4.502520697e+00  5.4688367e-06
4.502550714e+00  5.7905589e-06
4.502580731e+00  6.1234186e-06
4.502610748e+00  6.4673655e-06
4.502640766e+00  6.8223245e-06
4.502670783e+00  7.1881987e-06
4.502700801e+00  7.5648731e-06
4.502730819e+00  7.9522193e-06
4.502760837e+00  8.3500992e-06
4.502790856e+00  8.7583672e-06
4.502820874e+00  9.1768697e-06
4.502850893e+00  9.6054412e-06
4.502880912e+00  1.0043897e-05
4.502910931e+00  1.0492018e-05
4.502940951e+00  1.0949540e-05
4.502970970e+00  1.1416126e-05
4.503000990e+00  1.1891347e-05
4.503031010e+00  1.2374660e-05
4.503061030e+00  1.2865392e-05
4.503091051e+00  1.3362742e-05
4.503121071e+00  1.3865798e-05
4.503151092e+00  1.4373580e-05
4.503181113e+00  1.4885108e-05
4.503211134e+00  1.5399477e-05
4.503241156e+00  1.5915936e-05
4.503271177e+00  1.6433954e-05
4.503301199e+00  1.6953252e-05
4.503331221e+00  1.7473815e-05
4.503361244e+00  1.7995862e-05
4.503391266e+00  1.8519809e-05
4.503421289e+00  1.9046223e-05
4.503451311e+00  1.9575788e-05
4.503481334e+00  2.0109284e-05
4.503511358e+00  2.0647588e-05
4.503541381e+00  2.1191686e-05
4.503571405e+00  2.1742673e-05
4.503601428e+00  2.2301742e-05
4.503631452e+00  2.2870132e-05
4.503661477e+00  2.3449048e-05
4.503691501e+00  2.4039549e-05
4.503721526e+00  2.4642431e-05
4.503751550e+00  2.5258137e-05
4.503781575e+00  2.5886710e-05
4.503811601e+00  2.6527809e-05
4.503841626e+00  2.7180764e-05
4.503871652e+00  2.7844669e-05
4.503901677e+00  2.8518460e-05
4.503931703e+00  2.9200976e-05
4.503961730e+00  2.9890965e-05
4.503991756e+00  3.0587055e-05
4.504021783e+00  3.1287709e-05
4.504051810e+00  3.1991177e-05
4.504081837e+00  3.2695492e-05
4.504111864e+00  3.3398516e-05
4.504141891e+00  3.4098046e-05
4.504171919e+00  3.4791963e-05
4.504201947e+00  3.5478391e-05
4.504231975e+00  3.6155835e-05
4.504262003e+00  3.6823250e-05
4.504292031e+00  3.7480044e-05
4.504322060e+00  3.8126003e-05
4.504352089e+00  3.8761173e-05
4.504382118e+00  3.9385738e-05
4.504412147e+00  3.9999924e-05
4.504442176e+00  4.0603965e-05
4.504472206e+00  4.1198133e-05
4.504502236e+00  4.1782810e-05
4.504532266e+00  4.2358593e-05
4.504562296e+00  4.2926364e-05
4.504592326e+00  4.3487303e-05
4.504622357e+00  4.4042799e-05
4.504652388e+00  4.4594244e-05
4.504682419e+00  4.5142732e-05
4.504712450e+00  4.5688717e-05
4.504742481e+00  4.6231728e-05
4.504772513e+00  4.6770249e-05
4.504802545e+00  4.7301848e-05
4.504832577e+00  4.7823594e-05
4.504862609e+00  4.8332725e-05
4.504892642e+00  4.8827426e-05
4.504922674e+00  4.9307517e-05
4.504952707e+00  4.9774835e-05
4.504982740e+00  5.0233110e-05
4.505012773e+00  5.0687257e-05
4.505042807e+00  5.1142170e-05
4.505072840e+00  5.1601254e-05
4.505102874e+00  5.2065086e-05
4.505132908e+00  5.2530571e-05
4.505162942e+00  5.2990857e-05
4.505192977e+00  5.3436045e-05
4.505223011e+00  5.3854503e-05
4.505253046e+00  5.4234426e-05
4.505283081e+00  5.4565233e-05
4.505313116e+00  5.4838491e-05
4.505343152e+00  5.5048179e-05
4.505373187e+00  5.5190310e-05
4.505403223e+00  5.5262018e-05
4.505433259e+00  5.5260361e-05
4.505463296e+00  5.5181149e-05
4.505493332e+00  5.5018054e-05
4.505523369e+00  5.4762216e-05
4.505553405e+00  5.4402463e-05
4.505583442e+00  5.3926140e-05
4.505613480e+00  5.3320559e-05
4.505643517e+00  5.2575086e-05
4.505673555e+00  5.1683989e-05
4.505703593e+00  5.0650169e-05
4.505733631e+00  4.9489623e-05
4.505763669e+00  4.8236065e-05
4.505793707e+00  4.6944480e-05
4.505823746e+00  4.5691881e-05
4.505853785e+00  4.4573669e-05
4.505883824e+00  4.3694769e-05
4.505913863e+00  4.3156255e-05
4.505943902e+00  4.3039930e-05
4.505973942e+00  4.3394528e-05
4.506003982e+00  4.4227234e-05
4.506034022e+00  4.5502909e-05
4.506064062e+00  4.7151150e-05
4.506094102e+00  4.9079059e-05
4.506124143e+00  5.1186147e-05
4.506154184e+00  5.3377730e-05
4.506184225e+00  5.5574239e-05
4.506214266e+00  5.7715539e-05
4.506244308e+00  5.9760895e-05
4.506274349e+00  6.1686090e-05
4.506304391e+00  6.3479398e-05
4.506334433e+00  6.5137733e-05
4.506364475e+00  6.6663663e-05
4.506394518e+00  6.8063457e-05
4.506424560e+00  6.9345907e-05
4.506454603e+00  7.0521518e-05
4.506484646e+00  7.1601926e-05
4.506514689e+00  7.2598731e-05
4.506544733e+00  7.3522354e-05
4.506574777e+00  7.4380533e-05
4.506604820e+00  7.5176765e-05
4.506634864e+00  7.5908847e-05
4.506664909e+00  7.6567624e-05
4.506694953e+00  7.7136113e-05
4.506724998e+00  7.7589417e-05
4.506755042e+00  7.7896100e-05
4.506785088e+00  7.8021988e-05
4.506815133e+00  7.7937228e-05
4.506845178e+00  7.7626638e-05
4.506875224e+00  7.7101715e-05
4.506905270e+00  7.6410961e-05
4.506935316e+00  7.5643851e-05
4.506965362e+00  7.4924354e-05
4.506995408e+00  7.4392618e-05
4.507025455e+00  7.4177739e-05
4.507055502e+00  7.4368739e-05
4.507085549e+00  7.4992803e-05
4.507115596e+00  7.6008205e-05
4.507145644e+00  7.7314544e-05
4.507175691e+00  7.8776910e-05
4.507205739e+00  8.0256096e-05
4.507235787e+00  8.1635779e-05
4.507265835e+00  8.2839814e-05
4.507295884e+00  8.3837014e-05
4.507325932e+00  8.4635039e-05
4.507355981e+00  8.5267601e-05
4.507386030e+00  8.5779823e-05
4.507416080e+00  8.6215610e-05
4.507446129e+00  8.6609208e-05
4.507476179e+00  8.6981506e-05
4.507506228e+00  8.7340398e-05
4.507536278e+00  8.7683861e-05
4.507566329e+00  8.8004191e-05
4.507596379e+00  8.8292059e-05
4.507626430e+00  8.8539474e-05
4.507656481e+00  8.8741337e-05
4.507686532e+00  8.8895729e-05
4.507716583e+00  8.9003239e-05
4.507746634e+00  8.9066239e-05
4.507776686e+00  8.9087818e-05
4.507806738e+00  8.9071203e-05
4.507836790e+00  8.9019420e-05
4.507866842e+00  8.8935195e-05
4.507896895e+00  8.8820999e-05
4.507926947e+00  8.8679144e-05
4.507957000e+00  8.8511851e-05
4.507987053e+00  8.8321276e-05
4.508017106e+00  8.8109459e-05
4.508047160e+00  8.7878243e-05
4.508077213e+00  8.7629157e-05
4.508107267e+00  8.7363352e-05
4.508137321e+00  8.7081568e-05
4.508167376e+00  8.6784210e-05
4.508197430e+00  8.6471553e-05
4.508227485e+00  8.6144045e-05
4.508257540e+00  8.5802667e-05
4.508287595e+00  8.5449242e-05
4.508317650e+00  8.5086556e-05
4.508347705e+00  8.4718174e-05
4.508377761e+00  8.4347914e-05
4.508407817e+00  8.3979065e-05
4.508437873e+00  8.3613551e-05
4.508467929e+00  8.3251304e-05
4.508497986e+00  8.2890075e-05
4.508528042e+00  8.2525749e-05
4.508558099e+00  8.2153085e-05
4.508588156e+00  8.1766639e-05
4.508618213e+00  8.1361600e-05
4.508648271e+00  8.0934317e-05
4.508678329e+00  8.0482430e-05
4.508708386e+00  8.0004691e-05
4.508738444e+00  7.9500554e-05
4.508768503e+00  7.8969776e-05
4.508798561e+00  7.8412115e-05
4.508828620e+00  7.7827196e-05
4.508858679e+00  7.7214541e-05
4.508888738e+00  7.6573681e-05
4.508918797e+00  7.5904293e-05
4.508948856e+00  7.5206297e-05
4.508978916e+00  7.4479910e-05
4.509008976e+00  7.3725702e-05
4.509039036e+00  7.2944717e-05
4.509069096e+00  7.2138718e-05
4.509099157e+00  7.1310525e-05
4.509129217e+00  7.0464362e-05
4.509159278e+00  6.9605996e-05
4.509189339e+00  6.8742486e-05
4.509219401e+00  6.7881462e-05
4.509249462e+00  6.7029976e-05
4.509279524e+00  6.6193238e-05
4.509309586e+00  6.5373593e-05
4.509339648e+00  6.4570096e-05
4.509369710e+00  6.3778825e-05
4.509399772e+00  6.2993838e-05
4.509429835e+00  6.2208455e-05
4.509459898e+00  6.1416485e-05
4.509489961e+00  6.0613082e-05
4.509520024e+00  5.9795120e-05
4.509550088e+00  5.8961104e-05
4.509580151e+00  5.8110822e-05
4.509610215e+00  5.7244883e-05
4.509640279e+00  5.6364328e-05
4.509670344e+00  5.5470346e-05
4.509700408e+00  5.4564126e-05
4.509730473e+00  5.3646792e-05
4.509760538e+00  5.2719390e-05
4.509790603e+00  5.1782876e-05
4.509820668e+00  5.0838098e-05
4.509850733e+00  4.9885765e-05
4.509880799e+00  4.8926418e-05
4.509910865e+00  4.7960397e-05
4.509940931e+00  4.6987838e-05
4.509970997e+00  4.6008698e-05
4.510001064e+00  4.5022789e-05
4.510031130e+00  4.4029820e-05
4.510061197e+00  4.3029433e-05
4.510091264e+00  4.2021225e-05
4.510121332e+00  4.1004754e-05
4.510151399e+00  3.9979556e-05
4.510181467e+00  3.8945208e-05
4.510211535e+00  3.7901467e-05
4.510241603e+00  3.6848499e-05
4.510271671e+00  3.5787176e-05
4.510301739e+00  3.4719338e-05
4.510331808e+00  3.3647913e-05
4.510361877e+00  3.2576778e-05
4.510391946e+00  3.1510299e-05
4.510422015e+00  3.0452649e-05
4.510452085e+00  2.9407072e-05
4.510482155e+00  2.8375356e-05
4.510512224e+00  2.7357712e-05
4.510542295e+00  2.6353144e-05
4.510572365e+00  2.5360206e-05
4.510602435e+00  2.4377882e-05
4.510632506e+00  2.3406293e-05
4.510662577e+00  2.2446986e-05
4.510692648e+00  2.1502714e-05
4.510722719e+00  2.0576803e-05
4.510752791e+00  1.9672340e-05
4.510782862e+00  1.8791448e-05
4.510812934e+00  1.7934876e-05
4.510843006e+00  1.7101987e-05
4.510873079e+00  1.6291095e-05
4.510903151e+00  1.5499992e-05
4.510933224e+00  1.4726500e-05
4.510963297e+00  1.3968889e-05
4.510993370e+00  1.3226117e-05
4.511023443e+00  1.2497879e-05
4.511053517e+00  1.1784523e-05
4.511083590e+00  1.1086900e-05
4.511113664e+00  1.0406187e-05
4.511143738e+00  9.7437246e-06
4.511173813e+00  9.1008831e-06
4.511203887e+00  8.4789581e-06
4.511233962e+00  7.8791008e-06
4.511264037e+00  7.3022773e-06
4.511294112e+00  6.7492536e-06
4.511324187e+00  6.2206037e-06
4.511354263e+00  5.7167355e-06
4.511384338e+00  5.2379276e-06
4.511414414e+00  4.7843650e-06
4.511444490e+00  4.3561690e-06
4.511474566e+00  3.9533970e-06
4.511504643e+00  3.5760206e-06
4.511534720e+00  3.2238816e-06
4.511564797e+00  2.8966414e-06
4.511594874e+00  2.5937455e-06
4.511624951e+00  2.3144174e-06
4.511655028e+00  2.0576901e-06
4.511685106e+00  1.8224658e-06
4.511715184e+00  1.6075873e-06
4.511745262e+00  1.4119015e-06
4.511775340e+00  1.2343002e-06
4.511805419e+00  1.0737349e-06
4.511835498e+00  9.2921032e-07
4.511865577e+00  7.9976530e-07
4.511895656e+00  6.8445280e-07
4.511925735e+00  5.8232492e-07
4.511955815e+00  4.9242630e-07
4.511985894e+00  4.1379521e-07
4.512015974e+00  3.4547034e-07
4.512046054e+00  2.8650068e-07
4.512076135e+00  2.3595648e-07
4.512106215e+00  1.9294002e-07
4.512136296e+00  1.5659510e-07
4.512166377e+00  1.2611509e-07
4.512196458e+00  1.0074902e-07
4.512226539e+00  7.9805566e-08
4.512256621e+00  6.2655737e-08
4.512286702e+00  4.8732922e-08
4.512316784e+00  3.7531934e-08
4.512346866e+00  2.8606629e-08
4.512376949e+00  2.1566588e-08
4.512407031e+00  1.6073217e-08
4.512437114e+00  1.1835545e-08
4.512467197e+00  8.6059392e-09
4.512497280e+00  6.1758657e-09
4.512527363e+00  4.3717632e-09
4.512557447e+00  3.0510377e-09
4.512587530e+00  2.0981893e-09
4.512617614e+00  1.4210859e-09
4.512647698e+00  9.4742105e-10
4.512677783e+00  6.2140531e-10
4.512707867e+00  4.0074807e-10
4.512737952e+00  2.5396851e-10
4.512768037e+00  1.5806649e-10
4.512798122e+00  9.6556870e-11
4.512828207e+00  5.7854171e-11
4.512858293e+00  3.3979111e-11
4.512888379e+00  1.9549075e-11
4.512918465e+00  1.1009946e-11
4.512948551e+00  6.0658531e-12
4.512978637e+00  3.2669321e-12
4.513008724e+00  1.7187715e-12
4.513038810e+00  8.8269176e-13
4.513068897e+00  4.4216790e-13
4.513098984e+00  2.1587983e-13
4.513129072e+00  1.0264162e-13
4.513159159e+00  4.7481913e-14
4.513189247e+00  2.1349346e-14
4.513219335e+00  9.3192725e-15
4.513249423e+00  3.9438109e-15
4.513279511e+00  1.6153382e-15
4.513309600e+00  6.3907535e-16
4.513339689e+00  2.4363172e-16
4.513369777e+00  8.9240817e-17
4.513399867e+00  3.1303873e-17
4.513429956e+00  1.0479346e-17
4.513460045e+00  3.3811178e-18
4.513490135e+00  1.0163213e-18
4.513520225e+00  2.8501772e-19
4.513550315e+00  7.4155616e-20
4.513580406e+00  1.7741480e-20
4.513610496e+00  3.8630789e-21
4.513640587e+00  7.5658716e-22
4.513670678e+00  1.3149069e-22
4.513700769e+00  1.9959320e-23
4.513730860e+00  2.5944302e-24
4.513760952e+00  2.8045203e-25
4.513791044e+00  2.3680596e-26
4.513821136e+00  1.2349198e-27
4.513851228e+00  2.6313949e-29
4.513881320e+00  4.8208498e-30
4.513911413e+00  1.7750162e-31
4.513941505e+00  4.2632581e-33
4.513971598e+00  6.7150854e-35
4.514001691e+00  6.5687657e-37
4.514031785e+00  1.7068084e-38
4.514061878e+00  2.1454642e-36
4.514091972e+00  2.0380424e-34
4.514122066e+00  1.2263044e-32
4.514152160e+00  4.9573590e-31
4.514182254e+00  1.4157864e-29
4.514212349e+00  2.9795521e-28
4.514242444e+00  4.7984566e-27
4.514272539e+00  6.1071324e-26
4.514302634e+00  6.3152165e-25
4.514332729e+00  5.4350353e-24
4.514362825e+00  3.9755156e-23
4.514392920e+00  2.5173251e-22
4.514423016e+00  1.4019362e-21
4.514453113e+00  6.9555515e-21
4.514483209e+00  3.1256032e-20
4.514513306e+00  1.2828296e-19
4.514543402e+00  4.8565268e-19
4.514573499e+00  1.7106275e-18
4.514603596e+00  5.6484257e-18
4.514633694e+00  1.7598638e-17
4.514663791e+00  5.2030430e-17
4.514693889e+00  1.4668129e-16
4.514723987e+00  3.9594148e-16
4.514754085e+00  1.0268700e-15
4.514784184e+00  2.5661296e-15
4.514814282e+00  6.1939384e-15
4.514844381e+00  1.4469533e-14
4.514874480e+00  3.2769382e-14
4.514904579e+00  7.2031073e-14
4.514934678e+00  1.5376873e-13
4.514964778e+00  3.1969978e-13
4.514994878e+00  6.4748138e-13
4.515024978e+00  1.2785130e-12
4.515055078e+00  2.4635136e-12
4.515085178e+00  4.6360498e-12
4.515115279e+00  8.5286480e-12
4.515145380e+00  1.5350784e-11
4.515175480e+00  2.7056807e-11
4.515205582e+00  4.6741033e-11
4.515235683e+00  7.9204015e-11
4.515265785e+00  1.3174954e-10
4.515295886e+00  2.1527420e-10
4.515325988e+00  3.4571815e-10
4.515356091e+00  5.4594122e-10
4.515386193e+00  8.4807870e-10
4.515416295e+00  1.2964131e-09
4.515446398e+00  1.9507771e-09
4.515476501e+00  2.8904794e-09
4.515506604e+00  4.2187248e-09
4.515536708e+00  6.0674797e-09
4.515566811e+00  8.6027232e-09
4.515596915e+00  1.2030009e-08
4.515627019e+00  1.6600263e-08
4.515657123e+00  2.2615715e-08
4.515687228e+00  3.0435878e-08
4.515717332e+00  4.0483421e-08
4.515747437e+00  5.3249748e-08
4.515777542e+00  6.9300048e-08
4.515807647e+00  8.9277462e-08
4.515837753e+00  1.1390601e-07
4.515867858e+00  1.4399188e-07
4.515897964e+00  1.8042266e-07
4.515928070e+00  2.2416427e-07
4.515958176e+00  2.7625527e-07
4.515988283e+00  3.3779834e-07
4.516018389e+00  4.0994878e-07
4.516048496e+00  4.9389971e-07
4.516078603e+00  5.9086378e-07
4.516108710e+00  7.0205096e-07
4.516138817e+00  8.2864202e-07
4.516168925e+00  9.7175739e-07
4.516199033e+00  1.1324208e-06
4.516229141e+00  1.3115174e-06
4.516259249e+00  1.5097463e-06
4.516289357e+00  1.7275660e-06
4.516319466e+00  1.9651340e-06
4.516349575e+00  2.2222382e-06
4.516379684e+00  2.4982218e-06
4.516409793e+00  2.7919004e-06
4.516439902e+00  3.1014722e-06
4.516470012e+00  3.4244343e-06
4.516500122e+00  3.7574890e-06
4.516530232e+00  4.0964684e-06
4.516560342e+00  4.4362780e-06
4.516590452e+00  4.7708750e-06
4.516620563e+00  5.0933069e-06
4.516650674e+00  5.3958456e-06
4.516680785e+00  5.6702776e-06
4.516710896e+00  5.9084311e-06
4.516741007e+00  6.1030361e-06
4.516771119e+00  6.2490003e-06
4.516801231e+00  6.3451156e-06
4.516831343e+00  6.3960740e-06
4.516861455e+00  6.4144812e-06
4.516891567e+00  6.4223600e-06
4.516921680e+00  6.4515353e-06
4.516951793e+00  6.5423692e-06
4.516981906e+00  6.7406404e-06
4.517012019e+00  7.0928503e-06
4.517042133e+00  7.6407701e-06
4.517072246e+00  8.4163818e-06
4.517102360e+00  9.4383428e-06
4.517132474e+00  1.0710715e-05
4.517162588e+00  1.2224065e-05
4.517192703e+00  1.3958413e-05
4.517222817e+00  1.5887126e-05
4.517252932e+00  1.7980802e-05
4.517283047e+00  2.0210466e-05
4.517313162e+00  2.2549779e-05
4.517343278e+00  2.4976324e-05
4.517373393e+00  2.7472206e-05
4.517403509e+00  3.0024202e-05
4.517433625e+00  3.2623589e-05
4.517463741e+00  3.5265647e-05
4.517493858e+00  3.7948805e-05
4.517523974e+00  4.0673465e-05
4.517554091e+00  4.3440652e-05
4.517584208e+00  4.6250763e-05
4.517614326e+00  4.9102709e-05
4.517644443e+00  5.1993628e-05
4.517674561e+00  5.4919172e-05
4.517704678e+00  5.7874177e-05
4.517734796e+00  6.0853423e-05
4.517764915e+00  6.3852212e-05
4.517795033e+00  6.6866606e-05
4.517825152e+00  6.9893361e-05
4.517855271e+00  7.2929681e-05
4.517885390e+00  7.5972983e-05
4.517915509e+00  7.9020810e-05
4.517945628e+00  8.2070946e-05
4.517975748e+00  8.5121665e-05
4.518005868e+00  8.8172003e-05
4.518035988e+00  9.1221914e-05
4.518066108e+00  9.4272218e-05
4.518096228e+00  9.7324317e-05
4.518126349e+00  1.0037977e-04
4.518156470e+00  1.0343978e-04
4.518186591e+00  1.0650484e-04
4.518216712e+00  1.0957451e-04
4.518246834e+00  1.1264743e-04
4.518276955e+00  1.1572157e-04
4.518307077e+00  1.1879454e-04
4.518337199e+00  1.2186399e-04
4.518367321e+00  1.2492779e-04
4.518397444e+00  1.2798417e-04
4.518427567e+00  1.3103155e-04
4.518457689e+00  1.3406828e-04
4.518487812e+00  1.3709215e-04
4.518517936e+00  1.4009991e-04
4.518548059e+00  1.4308682e-04
4.518578183e+00  1.4604634e-04
4.518608307e+00  1.4896997e-04
4.518638431e+00  1.5184731e-04
4.518668555e+00  1.5466613e-04
4.518698679e+00  1.5741260e-04
4.518728804e+00  1.6007128e-04
4.518758929e+00  1.6262510e-04
4.518789054e+00  1.6505515e-04
4.518819179e+00  1.6734024e-04
4.518849305e+00  1.6945650e-04
4.518879430e+00  1.7137677e-04
4.518909556e+00  1.7307007e-04
4.518939682e+00  1.7450128e-04
4.518969809e+00  1.7563054e-04
4.518999935e+00  1.7641278e-04
4.519030062e+00  1.7679725e-04
4.519060189e+00  1.7672686e-04
4.519090316e+00  1.7613750e-04
4.519120443e+00  1.7495769e-04
4.519150570e+00  1.7310934e-04
4.519180698e+00  1.7051132e-04
4.519210826e+00  1.6708802e-04
4.519240954e+00  1.6278538e-04
4.519271082e+00  1.5759606e-04
4.519301211e+00  1.5159244e-04
4.519331339e+00  1.4496198e-04
