# Wave/freq Total
4.500000000e+00  1.7344731e-14
4.500030000e+00  3.3922937e-14
4.500060000e+00  6.4905105e-14
4.500090001e+00  1.2156184e-13
4.500120001e+00  2.2300850e-13
4.500150002e+00  4.0097647e-13
4.500180003e+00  7.0705116e-13
4.500210004e+00  1.2234110e-12
4.500240006e+00  2.0784083e-12
4.500270007e+00  3.4687192e-12
4.500300009e+00  5.6901234e-12
4.500330011e+00  9.1792546e-12
4.500360013e+00  1.4564047e-11
4.500390016e+00  2.2748503e-11
4.500420018e+00  3.4986414e-11
4.500450021e+00  5.2997899e-11
4.500480024e+00  7.9094025e-11
4.500510027e+00  1.1631870e-10
4.500540031e+00  1.6860340e-10
4.500570034e+00  2.4093641e-10
4.500600038e+00  3.3956054e-10
4.500630042e+00  4.7223581e-10
4.500660046e+00  6.4862360e-10
4.500690051e+00  8.8088181e-10
4.500720055e+00  1.1845411e-09
4.500750060e+00  1.5796860e-09
4.500780065e+00  2.0923503e-09
4.500810070e+00  2.7559230e-09
4.500840076e+00  3.6122394e-09
4.500870081e+00  4.7119984e-09
4.500900087e+00  6.1144082e-09
4.500930093e+00  7.8861031e-09
4.500960099e+00  1.0099739e-08
4.500990106e+00  1.2832818e-08
4.501020112e+00  1.6167252e-08
4.501050119e+00  2.0189925e-08
4.501080126e+00  2.4994205e-08
4.501110133e+00  3.0682211e-08
4.501140141e+00  3.7367363e-08
4.501170148e+00  4.5177175e-08
4.501200156e+00  5.4255965e-08
4.501230164e+00  6.4767225e-08
4.501260172e+00  7.6895046e-08
4.501290181e+00  9.0843856e-08
4.501320189e+00  1.0683580e-07
4.501350198e+00  1.2510579e-07
4.501380207e+00  1.4589524e-07
4.501410216e+00  1.6944637e-07
4.501440226e+00  1.9599926e-07
4.501470235e+00  2.2579320e-07
4.501500245e+00  2.5907216e-07
4.501530255e+00  2.9609255e-07
4.501560265e+00  3.3713002e-07
4.501590276e+00  3.8248237e-07
4.501620286e+00  4.3246649e-07
4.501650297e+00  4.8741002e-07
4.501680308e+00  5.4764010e-07
4.501710319e+00  6.1347295e-07
4.501740331e+00  6.8520756e-07
4.501770342e+00  7.6312498e-07
4.501800354e+00  8.4749276e-07
4.501830366e+00  9.3857225e-07
4.501860378e+00  1.0366259e-06
4.501890391e+00  1.1419220e-06
4.501920403e+00  1.2547367e-06
4.501950416e+00  1.3753517e-06
4.501980429e+00  1.5040513e-06
4.502010442e+00  1.6411171e-06
4.502040456e+00  1.7868241e-06
4.502070469e+00  1.9414374e-06
4.502100483e+00  2.1052089e-06
4.502130497e+00  2.2783767e-06
4.502160511e+00  2.4611637e-06
4.502190526e+00  2.6537782e-06
4.502220540e+00  2.8564139e-06
4.502250555e+00  3.0692513e-06
4.502280570e+00  3.2924579e-06
4.502310585e+00  3.5261884e-06
4.502340601e+00  3.7705845e-06
4.502370616e+00  4.0257740e-06
4.502400632e+00  4.2918689e-06
4.502430648e+00  4.5689633e-06
4.502460664e+00  4.8571319e-06
4.502490681e+00  5.1564269e-06
4.502520697e+00  5.4668765e-06
4.502550714e+00  5.7884833e-06
4.502580731e+00  6.1212234e-06
4.502610748e+00  6.4650465e-06
4.502640766e+00  6.8198776e-06
4.502670783e+00  7.1856197e-06
4.502700801e+00  7.5621579e-06
4.502730819e+00  7.9493638e-06
4.502760837e+00  8.3470995e-06
4.502790856e+00  8.7552193e-06
4.502820874e+00  9.1735698e-06
4.502850893e+00  9.6019857e-06
4.502880912e+00  1.0040282e-05
4.502910931e+00  1.0488240e-05
4.502940951e+00  1.0945595e-05
4.502970970e+00  1.1412010e-05
4.503000990e+00  1.1887056e-05
4.503031010e+00  1.2370189e-05
4.503061030e+00  1.2860738e-05
4.503091051e+00  1.3357900e-05
4.503121071e+00  1.3860764e-05
4.503151092e+00  1.4368352e-05
4.503181113e+00  1.4879683e-05
4.503211134e+00  1.5393854e-05
4.503241156e+00  1.5910114e-05
4.503271177e+00  1.6427933e-05
4.503301199e+00  1.6947033e-05
4.503331221e+00  1.7467398e-05
4.503361244e+00  1.7989246e-05
4.503391266e+00  1.8512993e-05
4.503421289e+00  1.9039207e-05
4.503451311e+00  1.9568568e-05
4.503481334e+00  2.0101859e-05
4.503511358e+00  2.0639955e-05
4.503541381e+00  2.1183840e-05
4.503571405e+00  2.1734610e-05
4.503601428e+00  2.2293456e-05
4.503631452e+00  2.2861619e-05
4.503661477e+00  2.3440303e-05
4.503691501e+00  2.4030566e-05
4.503721526e+00  2.4633204e-05
4.503751550e+00  2.5248660e-05
4.503781575e+00  2.5876977e-05
4.503811601e+00  2.6517813e-05
4.503841626e+00  2.7170500e-05
4.503871652e+00  2.7834130e-05
4.503901677e+00  2.8507642e-05
4.503931703e+00  2.9189874e-05
4.503961730e+00  2.9879574e-05
4.503991756e+00  3.0575373e-05
4.504021783e+00  3.1275733e-05
4.504051810e+00  3.1978904e-05
4.504081837e+00  3.2682921e-05
4.504111864e+00  3.3385646e-05
4.504141891e+00  3.4084877e-05
4.504171919e+00  3.4778495e-05
4.504201947e+00  3.5464624e-05
4.504231975e+00  3.6141769e-05
4.504262003e+00  3.6808886e-05
4.504292031e+00  3.7465383e-05
4.504322060e+00  3.8111046e-05
4.504352089e+00  3.8745922e-05
4.504382118e+00  3.9370193e-05
4.504412147e+00  3.9984087e-05
4.504442176e+00  4.0587838e-05
4.504472206e+00  4.1181718e-05
4.504502236e+00  4.1766109e-05
4.504532266e+00  4.2341607e-05
4.504562296e+00  4.2909094e-05
4.504592326e+00  4.3469750e-05
4.504622357e+00  4.4024961e-05
4.504652388e+00  4.4576119e-05
4.504682419e+00  4.5124319e-05
4.504712450e+00  4.5670013e-05
4.504742481e+00  4.6212733e-05
4.504772513e+00  4.6750961e-05
4.504802545e+00  4.7282267e-05
4.504832577e+00  4.7803723e-05
4.504862609e+00  4.8312567e-05
4.504892642e+00  4.8806984e-05
4.504922674e+00  4.9286796e-05
4.504952707e+00  4.9753838e-05
4.504982740e+00  5.0211838e-05
4.505012773e+00  5.0665713e-05
4.505042807e+00  5.1120351e-05
4.505072840e+00  5.1579160e-05
4.505102874e+00  5.2042718e-05
4.505132908e+00  5.2507931e-05
4.505162942e+00  5.2967954e-05
4.505192977e+00  5.3412891e-05
4.505223011e+00  5.3831118e-05
4.505253046e+00  5.4210831e-05
4.505283081e+00  5.4541455e-05
4.505313116e+00  5.4814559e-05
4.505343152e+00  5.5024119e-05
4.505373187e+00  5.5166148e-05
4.505403223e+00  5.5237778e-05
4.505433259e+00  5.5236064e-05
4.505463296e+00  5.5156817e-05
4.505493332e+00  5.4993709e-05
4.505523369e+00  5.4737884e-05
4.505553405e+00  5.4378173e-05
4.505583442e+00  5.3901927e-05
4.505613480e+00  5.3296465e-05
4.505643517e+00  5.2551156e-05
4.505673555e+00  5.1660275e-05
4.505703593e+00  5.0626719e-05
4.505733631e+00  4.9466478e-05
4.505763669e+00  4.8213251e-05
4.505793707e+00  4.6921991e-05
4.505823746e+00  4.5669671e-05
4.505853785e+00  4.4551641e-05
4.505883824e+00  4.3672767e-05
4.505913863e+00  4.3134063e-05
4.505943902e+00  4.3017282e-05
4.505973942e+00  4.3371122e-05
4.506003982e+00  4.4202753e-05
4.506034022e+00  4.5477040e-05
4.506064062e+00  4.7123603e-05
4.506094102e+00  4.9049579e-05
4.506124143e+00  5.1154514e-05
4.506154184e+00  5.3343761e-05
4.506184225e+00  5.5537774e-05
4.506214266e+00  5.7676434e-05
4.506244308e+00  5.9719008e-05
4.506274349e+00  6.1641271e-05
4.506304391e+00  6.3431479e-05
4.506334433e+00  6.5086518e-05
4.506364475e+00  6.6608922e-05
4.506394518e+00  6.8004913e-05
4.506424560e+00  6.9283228e-05
4.506454603e+00  7.0454305e-05
4.506484646e+00  7.1529698e-05
4.506514689e+00  7.2520908e-05
4.506544733e+00  7.3438235e-05
4.506574777e+00  7.4289271e-05
4.506604820e+00  7.5077327e-05
4.506634864e+00  7.5799968e-05
4.506664909e+00  7.6447748e-05
4.506694953e+00  7.7003321e-05
4.506724998e+00  7.7441371e-05
4.506755042e+00  7.7730016e-05
4.506785088e+00  7.7834699e-05
4.506815133e+00  7.7725367e-05
4.506845178e+00  7.7386990e-05
4.506875224e+00  7.6831740e-05
4.506905270e+00  7.6109424e-05
4.506935316e+00  7.5311447e-05
4.506965362e+00  7.4564162e-05
4.506995408e+00  7.4010217e-05
4.507025455e+00  7.3780889e-05
4.507055502e+00  7.3966632e-05
4.507085549e+00  7.4595019e-05
4.507115596e+00  7.5623594e-05
4.507145644e+00  7.6950280e-05
4.507175691e+00  7.8437903e-05
4.507205739e+00  7.9944843e-05
4.507235787e+00  8.1352605e-05
4.507265835e+00  8.2583369e-05
4.507295884e+00  8.3604880e-05
4.507325932e+00  8.4424284e-05
4.507355981e+00  8.5075211e-05
4.507386030e+00  8.5602977e-05
4.507416080e+00  8.6051818e-05
4.507446129e+00  8.6456355e-05
4.507476179e+00  8.6837833e-05
4.507506228e+00  8.7204461e-05
4.507536278e+00  8.7554481e-05
4.507566329e+00  8.7880411e-05
4.507596379e+00  8.8173098e-05
4.507626430e+00  8.8424696e-05
4.507656481e+00  8.8630219e-05
4.507686532e+00  8.8787836e-05
4.507716583e+00  8.8898207e-05
4.507746634e+00  8.8963760e-05
4.507776686e+00  8.8987629e-05
4.507806738e+00  8.8973077e-05
4.507836790e+00  8.8923160e-05
4.507866842e+00  8.8840633e-05
4.507896895e+00  8.8727988e-05
4.507926947e+00  8.8587555e-05
4.507957000e+00  8.8421573e-05
4.507987053e+00  8.8232211e-05
4.508017106e+00  8.8021520e-05
4.508047160e+00  8.7791353e-05
4.508077213e+00  8.7543249e-05
4.508107267e+00  8.7278365e-05
4.508137321e+00  8.6997447e-05
4.508167376e+00  8.6700909e-05
4.508197430e+00  8.6389031e-05
4.508227485e+00  8.6062265e-05
4.508257540e+00  8.5721597e-05
4.508287595e+00  8.5368852e-05
4.508317650e+00  8.5006818e-05
4.508347705e+00  8.4639060e-05
4.508377761e+00  8.4269397e-05
4.508407817e+00  8.3901115e-05
4.508437873e+00  8.3536140e-05
4.508467929e+00  8.3174407e-05
4.508497986e+00  8.2813671e-05
4.508528042e+00  8.2449821e-05
4.508558099e+00  8.2077623e-05
4.508588156e+00  8.1691640e-05
4.508618213e+00  8.1287066e-05
4.508648271e+00  8.0860254e-05
4.508678329e+00  8.0408850e-05
4.508708386e+00  7.9931605e-05
4.508738444e+00  7.9427976e-05
4.508768503e+00  7.8897719e-05
4.508798561e+00  7.8340593e-05
4.508828620e+00  7.7756225e-05
4.508858679e+00  7.7144137e-05
4.508888738e+00  7.6503862e-05
4.508918797e+00  7.5835077e-05
4.508948856e+00  7.5137702e-05
4.508978916e+00  7.4411955e-05
4.509008976e+00  7.3658407e-05
4.509039036e+00  7.2878101e-05
4.509069096e+00  7.2072799e-05
4.509099157e+00  7.1245319e-05
4.509129217e+00  7.0399882e-05
4.509159278e+00  6.9542249e-05
4.509189339e+00  6.8679474e-05
4.509219401e+00  6.7819179e-05
4.509249462e+00  6.6968411e-05
4.509279524e+00  6.6132374e-05
4.509309586e+00  6.5313412e-05
4.509339648e+00  6.4510581e-05
4.509369710e+00  6.3719961e-05
4.509399772e+00  6.2935618e-05
4.509429835e+00  6.2150879e-05
4.509459898e+00  6.1359557e-05
4.509489961e+00  6.0556813e-05
4.509520024e+00  5.9739523e-05
4.509550088e+00  5.8906195e-05
4.509580151e+00  5.8056615e-05
4.509610215e+00  5.7191395e-05
4.509640279e+00  5.6311572e-05
4.509670344e+00  5.5418336e-05
4.509700408e+00  5.4512874e-05
4.509730473e+00  5.3596310e-05
4.509760538e+00  5.2669687e-05
4.509790603e+00  5.1733961e-05
4.509820668e+00  5.0789981e-05
4.509850733e+00  4.9838454e-05
4.509880799e+00  4.8879920e-05
4.509910865e+00  4.7914720e-05
4.509940931e+00  4.6942989e-05
4.509970997e+00  4.5964687e-05
4.510001064e+00  4.4979623e-05
4.510031130e+00  4.3987508e-05
4.510061197e+00  4.2987984e-05
4.510091264e+00  4.1980651e-05
4.510121332e+00  4.0965065e-05
4.510151399e+00  3.9940764e-05
4.510181467e+00  3.8907326e-05
4.510211535e+00  3.7864507e-05
4.510241603e+00  3.6812475e-05
4.510271671e+00  3.5752100e-05
4.510301739e+00  3.4685221e-05
4.510331808e+00  3.3614763e-05
4.510361877e+00  3.2544598e-05
4.510391946e+00  3.1479088e-05
4.510422015e+00  3.0422402e-05
4.510452085e+00  2.9377781e-05
4.510482155e+00  2.8347011e-05
4.510512224e+00  2.7330302e-05
4.510542295e+00  2.6326662e-05
4.510572365e+00  2.5334644e-05
4.510602435e+00  2.4353234e-05
4.510632506e+00  2.3382554e-05
4.510662577e+00  2.2424147e-05
4.510692648e+00  2.1480764e-05
4.510722719e+00  2.0555729e-05
4.510752791e+00  1.9652124e-05
4.510782862e+00  1.8772069e-05
4.510812934e+00  1.7916314e-05
4.510843006e+00  1.7084222e-05
4.510873079e+00  1.6274109e-05
4.510903151e+00  1.5483769e-05
4.510933224e+00  1.4711024e-05
4.510963297e+00  1.3954149e-05
4.510993370e+00  1.3212102e-05
4.511023443e+00  1.2484578e-05
4.511053517e+00  1.1771925e-05
4.511083590e+00  1.1074994e-05
4.511113664e+00  1.0394959e-05
4.511143738e+00  9.7331620e-06
4.511173813e+00  9.0909699e-06
4.511203887e+00  8.4696769e-06
4.511233962e+00  7.8704331e-06
4.511264037e+00  7.2942030e-06
4.511294112e+00  6.7417515e-06
4.511324187e+00  6.2136519e-06
4.511354263e+00  5.7103112e-06
4.511384338e+00  5.2320077e-06
4.511414414e+00  4.7789260e-06
4.511444490e+00  4.3511868e-06
4.511474566e+00  3.9488471e-06
4.511504643e+00  3.5718785e-06
4.511534720e+00  3.2201227e-06
4.511564797e+00  2.8932409e-06
4.511594874e+00  2.5906790e-06
4.511624951e+00  2.3116612e-06
4.511655028e+00  2.0552213e-06
4.511685106e+00  1.8202624e-06
4.511715184e+00  1.6056284e-06
4.511745262e+00  1.4101670e-06
4.511775340e+00  1.2327711e-06
4.511805419e+00  1.0723932e-06
4.511835498e+00  9.2803889e-07
4.511865577e+00  7.9874775e-07
4.511895656e+00  6.8357364e-07
4.511925735e+00  5.8156952e-07
4.511955815e+00  4.9178095e-07
4.511985894e+00  4.1324712e-07
4.512015974e+00  3.4500767e-07
4.512046054e+00  2.8611256e-07
4.512076135e+00  2.3563300e-07
4.512106215e+00  1.9267222e-07
4.512136296e+00  1.5637494e-07
4.512166377e+00  1.2593541e-07
4.512196458e+00  1.0060350e-07
4.512226539e+00  7.9688646e-08
4.512256621e+00  6.2562595e-08
4.512286702e+00  4.8659386e-08
4.512316784e+00  3.7474428e-08
4.512346866e+00  2.8562107e-08
4.512376949e+00  2.1532482e-08
4.512407031e+00  1.6047379e-08
4.512437114e+00  1.1816198e-08
4.512467197e+00  8.5916267e-09
4.512497280e+00  6.1654105e-09
4.512527363e+00  4.3642249e-09
4.512557447e+00  3.0456755e-09
4.512587530e+00  2.0944280e-09
4.512617614e+00  1.4184853e-09
4.512647698e+00  9.4564965e-10
4.512677783e+00  6.2021722e-10
4.512707867e+00  3.9996386e-10
4.512737952e+00  2.5345940e-10
4.512768037e+00  1.5774159e-10
4.512798122e+00  9.6353191e-11
4.512828207e+00  5.7728816e-11
4.512858293e+00  3.3903420e-11
4.512888379e+00  1.9504267e-11
4.512918465e+00  1.0983957e-11
4.512948551e+00  6.0510950e-12
4.512978637e+00  3.2587326e-12
4.513008724e+00  1.7143175e-12
4.513038810e+00  8.8032798e-13
4.513068897e+00  4.4094310e-13
4.513098984e+00  2.1526067e-13
4.513129072e+00  1.0233647e-13
4.513159159e+00  4.7335409e-14
4.513189247e+00  2.1280887e-14
4.513219335e+00  9.2881675e-15
4.513249423e+00  3.9300853e-15
4.513279511e+00  1.6094643e-15
4.513309600e+00  6.3664169e-16
4.513339689e+00  2.4265753e-16
4.513369777e+00  8.8864999e-17
4.513399867e+00  3.1164542e-17
4.513429956e+00  1.0429870e-17
4.513460045e+00  3.3641773e-18
4.513490135e+00  1.0108779e-18
4.513520225e+00  2.8337579e-19
4.513550315e+00  7.3693288e-20
4.513580406e+00  1.7621025e-20
4.513610496e+00  3.8343341e-21
4.513640587e+00  7.5038035e-22
4.513670678e+00  1.3029272e-22
4.513700769e+00  1.9755622e-23
4.513730860e+00  2.5643481e-24
4.513760952e+00  2.7664053e-25
4.513791044e+00  2.3270154e-26
4.513821136e+00  1.2000143e-27
4.513851228e+00  2.5432696e-29
4.513881320e+00  4.7255745e-30
4.513911413e+00  1.7499187e-31
4.513941505e+00  4.2116926e-33
4.513971598e+00  6.6433951e-35
4.514001691e+00  6.5063974e-37
4.514031785e+00  1.7006148e-38
4.514061878e+00  2.1406010e-36
4.514091972e+00  2.0334267e-34
4.514122066e+00  1.2235381e-32
4.514152160e+00  4.9462103e-31
4.514182254e+00  1.4126079e-29
4.514212349e+00  2.9728723e-28
4.514242444e+00  4.7877304e-27
4.514272539e+00  6.0934978e-26
4.514302634e+00  6.3011349e-25
4.514332729e+00  5.4229341e-24
4.514362825e+00  3.9666713e-23
4.514392920e+00  2.5117311e-22
4.514423016e+00  1.3988242e-21
4.514453113e+00  6.9401276e-21
4.514483209e+00  3.1186748e-20
4.514513306e+00  1.2799868e-19
4.514543402e+00  4.8457675e-19
4.514573499e+00  1.7068387e-18
4.514603596e+00  5.6359171e-18
4.514633694e+00  1.7559670e-17
4.514663791e+00  5.1915219e-17
4.514693889e+00  1.4635650e-16
4.514723987e+00  3.9506462e-16
4.514754085e+00  1.0245955e-15
4.514784184e+00  2.5604450e-15
4.514814282e+00  6.1802159e-15
4.514844381e+00  1.4437470e-14
4.514874480e+00  3.2696754e-14
4.514904579e+00  7.1871391e-14
4.514934678e+00  1.5342777e-13
4.514964778e+00  3.1899070e-13
4.514994878e+00  6.4604485e-13
4.515024978e+00  1.2756755e-12
4.515055078e+00  2.4580442e-12
4.515085178e+00  4.6257529e-12
4.515115279e+00  8.5096971e-12
4.515145380e+00  1.5316658e-11
4.515175480e+00  2.6996625e-11
4.515205582e+00  4.6637009e-11
4.515235683e+00  7.9027634e-11
4.515265785e+00  1.3145594e-10
4.515295886e+00  2.1479415e-10
4.515325988e+00  3.4494662e-10
4.515356091e+00  5.4472191e-10
4.515386193e+00  8.4618303e-10
4.515416295e+00  1.2935128e-09
4.515446398e+00  1.9464090e-09
4.515476501e+00  2.8840011e-09
4.515506604e+00  4.2092605e-09
4.515536708e+00  6.0538544e-09
4.515566811e+00  8.5833848e-09
4.515596915e+00  1.2002938e-08
4.515627019e+00  1.6562865e-08
4.515657123e+00  2.2564707e-08
4.515687228e+00  3.0367152e-08
4.515717332e+00  4.0391893e-08
4.515747437e+00  5.3129204e-08
4.515777542e+00  6.9142961e-08
4.515807647e+00  8.9074812e-08
4.515837753e+00  1.1364708e-07
4.515867858e+00  1.4366407e-07
4.515897964e+00  1.8001126e-07
4.515928070e+00  2.2365228e-07
4.515958176e+00  2.7562322e-07
4.515988283e+00  3.3702410e-07
4.516018389e+00  4.0900740e-07
4.516048496e+00  4.9276335e-07
4.516078603e+00  5.8950157e-07
4.516108710e+00  7.0042900e-07
4.516138817e+00  8.2672340e-07
4.516168925e+00  9.6950230e-07
4.516199033e+00  1.1297867e-06
4.516229141e+00  1.3084594e-06
4.516259249e+00  1.5062173e-06
4.516289357e+00  1.7235176e-06
4.516319466e+00  1.9605168e-06
4.516349575e+00  2.2170031e-06
4.516379684e+00  2.4923205e-06
4.516409793e+00  2.7852871e-06
4.516439902e+00  3.0941049e-06
4.516470012e+00  3.4162764e-06
4.516500122e+00  3.7485116e-06
4.516530232e+00  4.0866520e-06
4.516560342e+00  4.4256150e-06
4.516590452e+00  4.7593727e-06
4.516620563e+00  5.0809889e-06
4.516650674e+00  5.3827548e-06
4.516680785e+00  5.6564772e-06
4.516710896e+00  5.8940046e-06
4.516741007e+00  6.0880856e-06
4.516771119e+00  6.2336410e-06
4.516801231e+00  6.3294660e-06
4.516831343e+00  6.3802411e-06
4.516861455e+00  6.3985399e-06
4.516891567e+00  6.4063292e-06
4.516921680e+00  6.4353521e-06
4.516951793e+00  6.5258664e-06
4.516981906e+00  6.7235319e-06
4.517012019e+00  7.0747277e-06
4.517042133e+00  7.6211139e-06
4.517072246e+00  8.3945852e-06
4.517102360e+00  9.4137449e-06
4.517132474e+00  1.0682638e-05
4.517162588e+00  1.2191846e-05
4.517192703e+00  1.3921435e-05
4.517222817e+00  1.5844832e-05
4.517252932e+00  1.7932704e-05
4.517283047e+00  2.0156143e-05
4.517313162e+00  2.2488872e-05
4.517343278e+00  2.4908525e-05
4.517373393e+00  2.7397246e-05
4.517403509e+00  2.9941839e-05
4.517433625e+00  3.2533594e-05
4.517463741e+00  3.5167793e-05
4.517493858e+00  3.7842860e-05
4.517523974e+00  4.0559183e-05
4.517554091e+00  4.3317774e-05
4.517584208e+00  4.6119017e-05
4.517614326e+00  4.8961813e-05
4.517644443e+00  5.1843296e-05
4.517674561e+00  5.4759118e-05
4.517704678e+00  5.7704117e-05
4.517734796e+00  6.0673074e-05
4.517764915e+00  6.3661288e-05
4.517795033e+00  6.6664817e-05
4.517825152e+00  6.9680410e-05
4.517855271e+00  7.2705258e-05
4.517885390e+00  7.5736766e-05
4.517915509e+00  7.8772463e-05
4.517945628e+00  8.1810113e-05
4.517975748e+00  8.4847968e-05
4.518005868e+00  8.7885037e-05
4.518035988e+00  9.0921241e-05
4.518066108e+00  9.3957357e-05
4.518096228e+00  9.6994745e-05
4.518126349e+00  1.0003490e-04
4.518156470e+00  1.0307899e-04
4.518186591e+00  1.0612744e-04
4.518216712e+00  1.0917973e-04
4.518246834e+00  1.1223445e-04
4.518276955e+00  1.1528949e-04
4.518307077e+00  1.1834240e-04
4.518337199e+00  1.2139070e-04
4.518367321e+00  1.2443218e-04
4.518397444e+00  1.2746494e-04
4.518427567e+00  1.3048727e-04
4.518457689e+00  1.3349736e-04
4.518487812e+00  1.3649281e-04
4.518517936e+00  1.3947018e-04
4.518548059e+00  1.4242451e-04
4.518578183e+00  1.4534902e-04
4.518608307e+00  1.4823493e-04
4.518638431e+00  1.5107152e-04
4.518668555e+00  1.5384624e-04
4.518698679e+00  1.5654481e-04
4.518728804e+00  1.5915135e-04
4.518758929e+00  1.6164826e-04
4.518789054e+00  1.6401601e-04
4.518819179e+00  1.6623275e-04
4.518849305e+00  1.6827383e-04
4.518879430e+00  1.7011123e-04
4.518909556e+00  1.7171306e-04
4.518939682e+00  1.7304318e-04
4.518969809e+00  1.7406071e-04
4.518999935e+00  1.7471953e-04
4.519030062e+00  1.7496796e-04
4.519060189e+00  1.7474817e-04
4.519090316e+00  1.7399572e-04
4.519120443e+00  1.7263937e-04
4.519150570e+00  1.7060219e-04
4.519180698e+00  1.6780532e-04
4.519210826e+00  1.6417679e-04
4.519240954e+00  1.5966750e-04
4.519271082e+00  1.5427611e-04
4.519301211e+00  1.4808139e-04
4.519331339e+00  1.4127657e-04
