# Wave/freq Total
4.500000000e+00  1.7343282e-14
4.500030000e+00  3.3920051e-14
4.500060000e+00  6.4899475e-14
4.500090001e+00  1.2155107e-13
4.500120001e+00  2.2298831e-13
4.500150002e+00  4.0093930e-13
4.500180003e+00  7.0698390e-13
4.500210004e+00  1.2232914e-12
4.500240006e+00  2.0781987e-12
4.500270007e+00  3.4683576e-12
4.500300009e+00  5.6895079e-12
4.500330011e+00  9.1782184e-12
4.500360013e+00  1.4562313e-11
4.500390016e+00  2.2745634e-11
4.500420018e+00  3.4981695e-11
4.500450021e+00  5.2990169e-11
4.500480024e+00  7.9081389e-11
4.500510027e+00  1.1629807e-10
4.500540031e+00  1.6856977e-10
4.500570034e+00  2.4088183e-10
4.500600038e+00  3.3947267e-10
4.500630042e+00  4.7209616e-10
4.500660046e+00  6.4840570e-10
4.500690051e+00  8.8054965e-10
4.500720055e+00  1.1840486e-09
4.500750060e+00  1.5789785e-09
4.500780065e+00  2.0913675e-09
4.500810070e+00  2.7546053e-09
4.500840076e+00  3.6105348e-09
4.500870081e+00  4.7098693e-09
4.500900087e+00  6.1118364e-09
4.500930093e+00  7.8830902e-09
4.500960099e+00  1.0096302e-08
4.500990106e+00  1.2828981e-08
4.501020112e+00  1.6163036e-08
4.501050119e+00  2.0185335e-08
4.501080126e+00  2.4989226e-08
4.501110133e+00  3.0676800e-08
4.501140141e+00  3.7361455e-08
4.501170148e+00  4.5170681e-08
4.501200156e+00  5.4248780e-08
4.501230164e+00  6.4759230e-08
4.501260172e+00  7.6886112e-08
4.501290181e+00  9.0833842e-08
4.501320189e+00  1.0682455e-07
4.501350198e+00  1.2509315e-07
4.501380207e+00  1.4588103e-07
4.501410216e+00  1.6943040e-07
4.501440226e+00  1.9598132e-07
4.501470235e+00  2.2577308e-07
4.501500245e+00  2.5904962e-07
4.501530255e+00  2.9606732e-07
4.501560265e+00  3.3710184e-07
4.501590276e+00  3.8245094e-07
4.501620286e+00  4.3243150e-07
4.501650297e+00  4.8737113e-07
4.501680308e+00  5.4759696e-07
4.501710319e+00  6.1342519e-07
4.501740331e+00  6.8515480e-07
4.501770342e+00  7.6306681e-07
4.501800354e+00  8.4742873e-07
4.501830366e+00  9.3850188e-07
4.501860378e+00  1.0365486e-06
4.501890391e+00  1.1418374e-06
4.501920403e+00  1.2546440e-06
4.501950416e+00  1.3752505e-06
4.501980429e+00  1.5039408e-06
4.502010442e+00  1.6409968e-06
4.502040456e+00  1.7866934e-06
4.502070469e+00  1.9412957e-06
4.502100483e+00  2.1050557e-06
4.502130497e+00  2.2782113e-06
4.502160511e+00  2.4609855e-06
4.502190526e+00  2.6535865e-06
4.502220540e+00  2.8562081e-06
4.502250555e+00  3.0690307e-06
4.502280570e+00  3.2922215e-06
4.502310585e+00  3.5259354e-06
4.502340601e+00  3.7703141e-06
4.502370616e+00  4.0254852e-06
4.502400632e+00  4.2915609e-06
4.502430648e+00  4.5686353e-06
4.502460664e+00  4.8567830e-06
4.502490681e+00  5.1560563e-06
4.502520697e+00  5.4664835e-06
4.502550714e+00  5.7880671e-06
4.502580731e+00  6.1207832e-06
4.502610748e+00  6.4645816e-06
4.502640766e+00  6.8193871e-06
4.502670783e+00  7.1851027e-06
4.502700801e+00  7.5616137e-06
4.502730819e+00  7.9487916e-06
4.502760837e+00  8.3464984e-06
4.502790856e+00  8.7545886e-06
4.502820874e+00  9.1729088e-06
4.502850893e+00  9.6012936e-06
4.502880912e+00  1.0039558e-05
4.502910931e+00  1.0487484e-05
4.502940951e+00  1.0944806e-05
4.502970970e+00  1.1411186e-05
4.503000990e+00  1.1886198e-05
4.503031010e+00  1.2369296e-05
4.503061030e+00  1.2859809e-05
4.503091051e+00  1.3356935e-05
4.503121071e+00  1.3859763e-05
4.503151092e+00  1.4367313e-05
4.503181113e+00  1.4878607e-05
4.503211134e+00  1.5392739e-05
4.503241156e+00  1.5908961e-05
4.503271177e+00  1.6426740e-05
4.503301199e+00  1.6945799e-05
4.503331221e+00  1.7466123e-05
4.503361244e+00  1.7987930e-05
4.503391266e+00  1.8511635e-05
4.503421289e+00  1.9037806e-05
4.503451311e+00  1.9567125e-05
4.503481334e+00  2.0100372e-05
4.503511358e+00  2.0638424e-05
4.503541381e+00  2.1182265e-05
4.503571405e+00  2.1732990e-05
4.503601428e+00  2.2291790e-05
4.503631452e+00  2.2859907e-05
4.503661477e+00  2.3438544e-05
4.503691501e+00  2.4028759e-05
4.503721526e+00  2.4631349e-05
4.503751550e+00  2.5246755e-05
4.503781575e+00  2.5875022e-05
4.503811601e+00  2.6515807e-05
4.503841626e+00  2.7168442e-05
4.503871652e+00  2.7832019e-05
4.503901677e+00  2.8505477e-05
4.503931703e+00  2.9187653e-05
4.503961730e+00  2.9877297e-05
4.503991756e+00  3.0573038e-05
4.504021783e+00  3.1273339e-05
4.504051810e+00  3.1976451e-05
4.504081837e+00  3.2680408e-05
4.504111864e+00  3.3383072e-05
4.504141891e+00  3.4082242e-05
4.504171919e+00  3.4775799e-05
4.504201947e+00  3.5461868e-05
4.504231975e+00  3.6138952e-05
4.504262003e+00  3.6806008e-05
4.504292031e+00  3.7462445e-05
4.504322060e+00  3.8108047e-05
4.504352089e+00  3.8742863e-05
4.504382118e+00  3.9367076e-05
4.504412147e+00  3.9980911e-05
4.504442176e+00  4.0584605e-05
4.504472206e+00  4.1178428e-05
4.504502236e+00  4.1762763e-05
4.504532266e+00  4.2338206e-05
4.504562296e+00  4.2905639e-05
4.504592326e+00  4.3466240e-05
4.504622357e+00  4.4021397e-05
4.504652388e+00  4.4572502e-05
4.504682419e+00  4.5120647e-05
4.504712450e+00  4.5666285e-05
4.504742481e+00  4.6208948e-05
4.504772513e+00  4.6747119e-05
4.504802545e+00  4.7278367e-05
4.504832577e+00  4.7799765e-05
4.504862609e+00  4.8308551e-05
4.504892642e+00  4.8802911e-05
4.504922674e+00  4.9282666e-05
4.504952707e+00  4.9749652e-05
4.504982740e+00  5.0207596e-05
4.505012773e+00  5.0661414e-05
4.505042807e+00  5.1115995e-05
4.505072840e+00  5.1574747e-05
4.505102874e+00  5.2038246e-05
4.505132908e+00  5.2503403e-05
4.505162942e+00  5.2963370e-05
4.505192977e+00  5.3408256e-05
4.505223011e+00  5.3826435e-05
4.505253046e+00  5.4206106e-05
4.505283081e+00  5.4536694e-05
4.505313116e+00  5.4809767e-05
4.505343152e+00  5.5019302e-05
4.505373187e+00  5.5161311e-05
4.505403223e+00  5.5232926e-05
4.505433259e+00  5.5231202e-05
4.505463296e+00  5.5151948e-05
4.505493332e+00  5.4988838e-05
4.505523369e+00  5.4733015e-05
4.505553405e+00  5.4373311e-05
4.505583442e+00  5.3897081e-05
4.505613480e+00  5.3291642e-05
4.505643517e+00  5.2546366e-05
4.505673555e+00  5.1655527e-05
4.505703593e+00  5.0622024e-05
4.505733631e+00  4.9461843e-05
4.505763669e+00  4.8208681e-05
4.505793707e+00  4.6917486e-05
4.505823746e+00  4.5665222e-05
4.505853785e+00  4.4547229e-05
4.505883824e+00  4.3668361e-05
4.505913863e+00  4.3129620e-05
4.505943902e+00  4.3012750e-05
4.505973942e+00  4.3366440e-05
4.506003982e+00  4.4197859e-05
4.506034022e+00  4.5471870e-05
4.506064062e+00  4.7118100e-05
4.506094102e+00  4.9043691e-05
4.506124143e+00  5.1148198e-05
4.506154184e+00  5.3336979e-05
4.506184225e+00  5.5530494e-05
4.506214266e+00  5.7668627e-05
4.506244308e+00  5.9710645e-05
4.506274349e+00  6.1632319e-05
4.506304391e+00  6.3421905e-05
4.506334433e+00  6.5076282e-05
4.506364475e+00  6.6597978e-05
4.506394518e+00  6.7993206e-05
4.506424560e+00  6.9270693e-05
4.506454603e+00  7.0440863e-05
4.506484646e+00  7.1515254e-05
4.506514689e+00  7.2505348e-05
4.506544733e+00  7.3421419e-05
4.506574777e+00  7.4271030e-05
4.506604820e+00  7.5057456e-05
4.506634864e+00  7.5778215e-05
4.506664909e+00  7.6423803e-05
4.506694953e+00  7.6976805e-05
4.506724998e+00  7.7411821e-05
4.506755042e+00  7.7696886e-05
4.506785088e+00  7.7797365e-05
4.506815133e+00  7.7683171e-05
4.506845178e+00  7.7339305e-05
4.506875224e+00  7.6778073e-05
4.506905270e+00  7.6049539e-05
4.506935316e+00  7.5245488e-05
4.506965362e+00  7.4492737e-05
4.506995408e+00  7.3934426e-05
4.507025455e+00  7.3702255e-05
4.507055502e+00  7.3886961e-05
4.507085549e+00  7.4516189e-05
4.507115596e+00  7.5547342e-05
4.507145644e+00  7.6878017e-05
4.507175691e+00  7.8370597e-05
4.507205739e+00  7.9882990e-05
4.507235787e+00  8.1296276e-05
4.507265835e+00  8.2532307e-05
4.507295884e+00  8.3558617e-05
4.507325932e+00  8.4382249e-05
4.507355981e+00  8.5036813e-05
4.507386030e+00  8.5567664e-05
4.507416080e+00  8.6019100e-05
4.507446129e+00  8.6425814e-05
4.507476179e+00  8.6809120e-05
4.507506228e+00  8.7177289e-05
4.507536278e+00  8.7528616e-05
4.507566329e+00  8.7855661e-05
4.507596379e+00  8.8149308e-05
4.507626430e+00  8.8401738e-05
4.507656481e+00  8.8607991e-05
4.507686532e+00  8.8766250e-05
4.507716583e+00  8.8877192e-05
4.507746634e+00  8.8943256e-05
4.507776686e+00  8.8967583e-05
4.507806738e+00  8.8953445e-05
4.507836790e+00  8.8903904e-05
4.507866842e+00  8.8821719e-05
4.507896895e+00  8.8709387e-05
4.507926947e+00  8.8569241e-05
4.507957000e+00  8.8403524e-05
4.507987053e+00  8.8214405e-05
4.508017106e+00  8.8003940e-05
4.508047160e+00  8.7773984e-05
4.508077213e+00  8.7526075e-05
4.508107267e+00  8.7261376e-05
4.508137321e+00  8.6980633e-05
4.508167376e+00  8.6684261e-05
4.508197430e+00  8.6372541e-05
4.508227485e+00  8.6045926e-05
4.508257540e+00  8.5705403e-05
4.508287595e+00  8.5352797e-05
4.508317650e+00  8.4990896e-05
4.508347705e+00  8.4623264e-05
4.508377761e+00  8.4253720e-05
4.508407817e+00  8.3885552e-05
4.508437873e+00  8.3520684e-05
4.508467929e+00  8.3159053e-05
4.508497986e+00  8.2798414e-05
4.508528042e+00  8.2434658e-05
4.508558099e+00  8.2062554e-05
4.508588156e+00  8.1676663e-05
4.508618213e+00  8.1272183e-05
4.508648271e+00  8.0845465e-05
4.508678329e+00  8.0394157e-05
4.508708386e+00  7.9917010e-05
4.508738444e+00  7.9413480e-05
4.508768503e+00  7.8883325e-05
4.508798561e+00  7.8326304e-05
4.508828620e+00  7.7742045e-05
4.508858679e+00  7.7130069e-05
4.508888738e+00  7.6489909e-05
4.508918797e+00  7.5821244e-05
4.508948856e+00  7.5123994e-05
4.508978916e+00  7.4398376e-05
4.509008976e+00  7.3644960e-05
4.509039036e+00  7.2864791e-05
4.509069096e+00  7.2059628e-05
4.509099157e+00  7.1232292e-05
4.509129217e+00  7.0387000e-05
4.509159278e+00  6.9529514e-05
4.509189339e+00  6.8666887e-05
4.509219401e+00  6.7806738e-05
4.509249462e+00  6.6956113e-05
4.509279524e+00  6.6120216e-05
4.509309586e+00  6.5301391e-05
4.509339648e+00  6.4498692e-05
4.509369710e+00  6.3708203e-05
4.509399772e+00  6.2923988e-05
4.509429835e+00  6.2139377e-05
4.509459898e+00  6.1348183e-05
4.509489961e+00  6.0545570e-05
4.509520024e+00  5.9728412e-05
4.509550088e+00  5.8895220e-05
4.509580151e+00  5.8045779e-05
4.509610215e+00  5.7180700e-05
4.509640279e+00  5.6301022e-05
4.509670344e+00  5.5407933e-05
4.509700408e+00  5.4502621e-05
4.509730473e+00  5.3586210e-05
4.509760538e+00  5.2659742e-05
4.509790603e+00  5.1724174e-05
4.509820668e+00  5.0780353e-05
4.509850733e+00  4.9828988e-05
4.509880799e+00  4.8870618e-05
4.509910865e+00  4.7905584e-05
4.509940931e+00  4.6934021e-05
4.509970997e+00  4.5955888e-05
4.510001064e+00  4.4970995e-05
4.510031130e+00  4.3979053e-05
4.510061197e+00  4.2979705e-05
4.510091264e+00  4.1972547e-05
4.510121332e+00  4.0957139e-05
4.510151399e+00  3.9933018e-05
4.510181467e+00  3.8899761e-05
4.510211535e+00  3.7857125e-05
4.510241603e+00  3.6805278e-05
4.510271671e+00  3.5745090e-05
4.510301739e+00  3.4678400e-05
4.510331808e+00  3.3608132e-05
4.510361877e+00  3.2538159e-05
4.510391946e+00  3.1472841e-05
4.510422015e+00  3.0416346e-05
4.510452085e+00  2.9371917e-05
4.510482155e+00  2.8341336e-05
4.510512224e+00  2.7324816e-05
4.510542295e+00  2.6321362e-05
4.510572365e+00  2.5329530e-05
4.510602435e+00  2.4348304e-05
4.510632506e+00  2.3377807e-05
4.510662577e+00  2.2419581e-05
4.510692648e+00  2.1476377e-05
4.510722719e+00  2.0551517e-05
4.510752791e+00  1.9648083e-05
4.510782862e+00  1.8768195e-05
4.510812934e+00  1.7912602e-05
4.510843006e+00  1.7080667e-05
4.510873079e+00  1.6270707e-05
4.510903151e+00  1.5480515e-05
4.510933224e+00  1.4707917e-05
4.510963297e+00  1.3951186e-05
4.510993370e+00  1.3209281e-05
4.511023443e+00  1.2481898e-05
4.511053517e+00  1.1769385e-05
4.511083590e+00  1.1072593e-05
4.511113664e+00  1.0392696e-05
4.511143738e+00  9.7310336e-06
4.511173813e+00  9.0889739e-06
4.511203887e+00  8.4678103e-06
4.511233962e+00  7.8686919e-06
4.511264037e+00  7.2925831e-06
4.511294112e+00  6.7402484e-06
4.511324187e+00  6.2122606e-06
4.511354263e+00  5.7090269e-06
4.511384338e+00  5.2308253e-06
4.511414414e+00  4.7778403e-06
4.511444490e+00  4.3501928e-06
4.511474566e+00  3.9479398e-06
4.511504643e+00  3.5710527e-06
4.511534720e+00  3.2193734e-06
4.511564797e+00  2.8925631e-06
4.511594874e+00  2.5900678e-06
4.511624951e+00  2.3111119e-06
4.511655028e+00  2.0547292e-06
4.511685106e+00  1.8198232e-06
4.511715184e+00  1.6052379e-06
4.511745262e+00  1.4098213e-06
4.511775340e+00  1.2324663e-06
4.511805419e+00  1.0721258e-06
4.511835498e+00  9.2780533e-07
4.511865577e+00  7.9854483e-07
4.511895656e+00  6.8339826e-07
4.511925735e+00  5.8141878e-07
4.511955815e+00  4.9165211e-07
4.511985894e+00  4.1313765e-07
4.512015974e+00  3.4491523e-07
4.512046054e+00  2.8603498e-07
4.512076135e+00  2.3556833e-07
4.512106215e+00  1.9261867e-07
4.512136296e+00  1.5633091e-07
4.512166377e+00  1.2589948e-07
4.512196458e+00  1.0057440e-07
4.512226539e+00  7.9665275e-08
4.512256621e+00  6.2543980e-08
4.512286702e+00  4.8644692e-08
4.512316784e+00  3.7462937e-08
4.512346866e+00  2.8553211e-08
4.512376949e+00  2.1525666e-08
4.512407031e+00  1.6042215e-08
4.512437114e+00  1.1812330e-08
4.512467197e+00  8.5887650e-09
4.512497280e+00  6.1633197e-09
4.512527363e+00  4.3627172e-09
4.512557447e+00  3.0446030e-09
4.512587530e+00  2.0936756e-09
4.512617614e+00  1.4179652e-09
4.512647698e+00  9.4529537e-10
4.512677783e+00  6.1997961e-10
4.512707867e+00  3.9980703e-10
4.512737952e+00  2.5335758e-10
4.512768037e+00  1.5767661e-10
4.512798122e+00  9.6312447e-11
4.512828207e+00  5.7703735e-11
4.512858293e+00  3.3888274e-11
4.512888379e+00  1.9495299e-11
4.512918465e+00  1.0978755e-11
4.512948551e+00  6.0481409e-12
4.512978637e+00  3.2570914e-12
4.513008724e+00  1.7134262e-12
4.513038810e+00  8.7985504e-13
4.513068897e+00  4.4069812e-13
4.513098984e+00  2.1513687e-13
4.513129072e+00  1.0227548e-13
4.513159159e+00  4.7306139e-14
4.513189247e+00  2.1267215e-14
4.513219335e+00  9.2819587e-15
4.513249423e+00  3.9273470e-15
4.513279511e+00  1.6082930e-15
4.513309600e+00  6.3615652e-16
4.513339689e+00  2.4246340e-16
4.513369777e+00  8.8790119e-17
4.513399867e+00  3.1136790e-17
4.513429956e+00  1.0420012e-17
4.513460045e+00  3.3608028e-18
4.513490135e+00  1.0097938e-18
4.513520225e+00  2.8304859e-19
4.513550315e+00  7.3601178e-20
4.513580406e+00  1.7597055e-20
4.513610496e+00  3.8286200e-21
4.513640587e+00  7.4914532e-22
4.513670678e+00  1.3005435e-22
4.513700769e+00  1.9715115e-23
4.513730860e+00  2.5583666e-24
4.513760952e+00  2.7588444e-25
4.513791044e+00  2.3189032e-26
4.513821136e+00  1.1931771e-27
4.513851228e+00  2.5261909e-29
4.513881320e+00  4.7067535e-30
4.513911413e+00  1.7449444e-31
4.513941505e+00  4.2014540e-33
4.513971598e+00  6.6291539e-35
4.514001691e+00  6.4939993e-37
4.514031785e+00  1.6993810e-38
4.514061878e+00  2.1396227e-36
4.514091972e+00  2.0325091e-34
4.514122066e+00  1.2229850e-32
4.514152160e+00  4.9439834e-31
4.514182254e+00  1.4119734e-29
4.514212349e+00  2.9715395e-28
4.514242444e+00  4.7855919e-27
4.514272539e+00  6.0907814e-26
4.514302634e+00  6.2983245e-25
4.514332729e+00  5.4205155e-24
4.514362825e+00  3.9649144e-23
4.514392920e+00  2.5106164e-22
4.514423016e+00  1.3982021e-21
4.514453113e+00  6.9370405e-21
4.514483209e+00  3.1172892e-20
4.514513306e+00  1.2794174e-19
4.514543402e+00  4.8436137e-19
4.514573499e+00  1.7060801e-18
4.514603596e+00  5.6334135e-18
4.514633694e+00  1.7551874e-17
4.514663791e+00  5.1892171e-17
4.514693889e+00  1.4629147e-16
4.514723987e+00  3.9488915e-16
4.514754085e+00  1.0241404e-15
4.514784184e+00  2.5593077e-15
4.514814282e+00  6.1774696e-15
4.514844381e+00  1.4431053e-14
4.514874480e+00  3.2682217e-14
4.514904579e+00  7.1839430e-14
4.514934678e+00  1.5335952e-13
4.514964778e+00  3.1884875e-13
4.514994878e+00  6.4575727e-13
4.515024978e+00  1.2751075e-12
4.515055078e+00  2.4569492e-12
4.515085178e+00  4.6236915e-12
4.515115279e+00  8.5059032e-12
4.515145380e+00  1.5309826e-11
4.515175480e+00  2.6984578e-11
4.515205582e+00  4.6616188e-11
4.515235683e+00  7.8992334e-11
4.515265785e+00  1.3139720e-10
4.515295886e+00  2.1469810e-10
4.515325988e+00  3.4479229e-10
4.515356091e+00  5.4447804e-10
4.515386193e+00  8.4580394e-10
4.515416295e+00  1.2929329e-09
4.515446398e+00  1.9455357e-09
4.515476501e+00  2.8827063e-09
4.515506604e+00  4.2073691e-09
4.515536708e+00  6.0511319e-09
4.515566811e+00  8.5795214e-09
4.515596915e+00  1.1997530e-08
4.515627019e+00  1.6555397e-08
4.515657123e+00  2.2554522e-08
4.515687228e+00  3.0353431e-08
4.515717332e+00  4.0373623e-08
4.515747437e+00  5.3105144e-08
4.515777542e+00  6.9111609e-08
4.515807647e+00  8.9034364e-08
4.515837753e+00  1.1359540e-07
4.515867858e+00  1.4359862e-07
4.515897964e+00  1.7992911e-07
4.515928070e+00  2.2355002e-07
4.515958176e+00  2.7549694e-07
4.515988283e+00  3.3686934e-07
4.516018389e+00  4.0881917e-07
4.516048496e+00  4.9253604e-07
4.516078603e+00  5.8922900e-07
4.516108710e+00  7.0010438e-07
4.516138817e+00  8.2633936e-07
4.516168925e+00  9.6905092e-07
4.516199033e+00  1.1292595e-06
4.516229141e+00  1.3078475e-06
4.516259249e+00  1.5055113e-06
4.516289357e+00  1.7227079e-06
4.516319466e+00  1.9595937e-06
4.516349575e+00  2.2159567e-06
4.516379684e+00  2.4911411e-06
4.516409793e+00  2.7839656e-06
4.516439902e+00  3.0926328e-06
4.516470012e+00  3.4146464e-06
4.516500122e+00  3.7467178e-06
4.516530232e+00  4.0846905e-06
4.516560342e+00  4.4234844e-06
4.516590452e+00  4.7570743e-06
4.516620563e+00  5.0785278e-06
4.516650674e+00  5.3801393e-06
4.516680785e+00  5.6537201e-06
4.516710896e+00  5.8911226e-06
4.516741007e+00  6.0850991e-06
4.516771119e+00  6.2305729e-06
4.516801231e+00  6.3263400e-06
4.516831343e+00  6.3770784e-06
4.516861455e+00  6.3953553e-06
4.516891567e+00  6.4031265e-06
4.516921680e+00  6.4321187e-06
4.516951793e+00  6.5225689e-06
4.516981906e+00  6.7201131e-06
4.517012019e+00  7.0711062e-06
4.517042133e+00  7.6171861e-06
4.517072246e+00  8.3902302e-06
4.517102360e+00  9.4088311e-06
4.517132474e+00  1.0677030e-05
4.517162588e+00  1.2185413e-05
4.517192703e+00  1.3914052e-05
4.517222817e+00  1.5836389e-05
4.517252932e+00  1.7923102e-05
4.517283047e+00  2.0145299e-05
4.517313162e+00  2.2476713e-05
4.517343278e+00  2.4894988e-05
4.517373393e+00  2.7382277e-05
4.517403509e+00  2.9925389e-05
4.517433625e+00  3.2515617e-05
4.517463741e+00  3.5148243e-05
4.517493858e+00  3.7821690e-05
4.517523974e+00  4.0536346e-05
4.517554091e+00  4.3293218e-05
4.517584208e+00  4.6092688e-05
4.517614326e+00  4.8933656e-05
4.517644443e+00  5.1813255e-05
4.517674561e+00  5.4727138e-05
4.517704678e+00  5.7670141e-05
4.517734796e+00  6.0637048e-05
4.517764915e+00  6.3623155e-05
4.517795033e+00  6.6624519e-05
4.517825152e+00  6.9637888e-05
4.517855271e+00  7.2660451e-05
4.517885390e+00  7.5689609e-05
4.517915509e+00  7.8722888e-05
4.517945628e+00  8.1758049e-05
4.517975748e+00  8.4793339e-05
4.518005868e+00  8.7827762e-05
4.518035988e+00  9.0861232e-05
4.518066108e+00  9.3894519e-05
4.518096228e+00  9.6928972e-05
4.518126349e+00  9.9966080e-05
4.518156470e+00  1.0300699e-04
4.518186591e+00  1.0605212e-04
4.518216712e+00  1.0910095e-04
4.518246834e+00  1.1215204e-04
4.518276955e+00  1.1520328e-04
4.518307077e+00  1.1825219e-04
4.518337199e+00  1.2129629e-04
4.518367321e+00  1.2433334e-04
4.518397444e+00  1.2736140e-04
4.518427567e+00  1.3037876e-04
4.518457689e+00  1.3338355e-04
4.518487812e+00  1.3637336e-04
4.518517936e+00  1.3934469e-04
4.518548059e+00  1.4229254e-04
4.518578183e+00  1.4521008e-04
4.518608307e+00  1.4808847e-04
4.518638431e+00  1.5091695e-04
4.518668555e+00  1.5368287e-04
4.518698679e+00  1.5637189e-04
4.518728804e+00  1.5896804e-04
4.518758929e+00  1.6145361e-04
4.518789054e+00  1.6380896e-04
4.518819179e+00  1.6601210e-04
4.518849305e+00  1.6803823e-04
4.518879430e+00  1.6985919e-04
4.518909556e+00  1.7144288e-04
4.518939682e+00  1.7275298e-04
4.518969809e+00  1.7374841e-04
4.518999935e+00  1.7438286e-04
4.519030062e+00  1.7460447e-04
4.519060189e+00  1.7435529e-04
4.519090316e+00  1.7357082e-04
4.519120443e+00  1.7217989e-04
4.519150570e+00  1.7010582e-04
4.519180698e+00  1.6727024e-04
4.519210826e+00  1.6360191e-04
4.519240954e+00  1.5905273e-04
4.519271082e+00  1.5362257e-04
4.519301211e+00  1.4739141e-04
4.519331339e+00  1.4055363e-04
