# Wave/freq Total
4.500000000e+00  1.7350527e-14
4.500030000e+00  3.3934465e-14
4.500060000e+00  6.4927570e-14
4.500090001e+00  1.2160475e-13
4.500120001e+00  2.2308895e-13
4.500150002e+00  4.0112455e-13
4.500180003e+00  7.0731904e-13
4.500210004e+00  1.2238877e-12
4.500240006e+00  2.0792432e-12
4.500270007e+00  3.4701600e-12
4.500300009e+00  5.6925760e-12
4.500330011e+00  9.1833845e-12
4.500360013e+00  1.4570958e-11
4.500390016e+00  2.2759947e-11
4.500420018e+00  3.5005240e-11
4.500450021e+00  5.3028756e-11
4.500480024e+00  7.9144511e-11
4.500510027e+00  1.1640122e-10
4.500540031e+00  1.6873805e-10
4.500570034e+00  2.4115522e-10
4.500600038e+00  3.3991329e-10
4.500630042e+00  4.7279713e-10
4.500660046e+00  6.4950056e-10
4.500690051e+00  8.8222001e-10
4.500720055e+00  1.1865267e-09
4.500750060e+00  1.5825408e-09
4.500780065e+00  2.0963172e-09
4.500810070e+00  2.7612425e-09
4.500840076e+00  3.6191206e-09
4.500870081e+00  4.7205901e-09
4.500900087e+00  6.1247802e-09
4.500930093e+00  7.8982435e-09
4.500960099e+00  1.0113572e-08
4.500990106e+00  1.2848240e-08
4.501020112e+00  1.6184176e-08
4.501050119e+00  2.0208323e-08
4.501080126e+00  2.5014140e-08
4.501110133e+00  3.0703850e-08
4.501140141e+00  3.7390977e-08
4.501170148e+00  4.5203122e-08
4.501200156e+00  5.4284672e-08
4.501230164e+00  6.4799170e-08
4.501260172e+00  7.6930753e-08
4.501290181e+00  9.0883889e-08
4.501320189e+00  1.0688077e-07
4.501350198e+00  1.2515636e-07
4.501380207e+00  1.4595213e-07
4.501410216e+00  1.6951036e-07
4.501440226e+00  1.9607119e-07
4.501470235e+00  2.2587398e-07
4.501500245e+00  2.5916277e-07
4.501530255e+00  2.9619401e-07
4.501560265e+00  3.3724345e-07
4.501590276e+00  3.8260897e-07
4.501620286e+00  4.3260753e-07
4.501650297e+00  4.8756686e-07
4.501680308e+00  5.4781419e-07
4.501710319e+00  6.1366585e-07
4.501740331e+00  6.8542089e-07
4.501770342e+00  7.6336043e-07
4.501800354e+00  8.4775212e-07
4.501830366e+00  9.3885735e-07
4.501860378e+00  1.0369386e-06
4.501890391e+00  1.1422644e-06
4.501920403e+00  1.2551108e-06
4.501950416e+00  1.3757598e-06
4.501980429e+00  1.5044955e-06
4.502010442e+00  1.6415999e-06
4.502040456e+00  1.7873480e-06
4.502070469e+00  1.9420048e-06
4.502100483e+00  2.1058226e-06
4.502130497e+00  2.2790392e-06
4.502160511e+00  2.4618779e-06
4.502190526e+00  2.6545468e-06
4.502220540e+00  2.8572399e-06
4.502250555e+00  3.0701375e-06
4.502280570e+00  3.2934073e-06
4.502310585e+00  3.5272040e-06
4.502340601e+00  3.7716694e-06
4.502370616e+00  4.0269313e-06
4.502400632e+00  4.2931018e-06
4.502430648e+00  4.5702751e-06
4.502460664e+00  4.8585258e-06
4.502490681e+00  5.1579063e-06
4.502520697e+00  5.4684447e-06
4.502550714e+00  5.7901437e-06
4.502580731e+00  6.1229794e-06
4.502610748e+00  6.4669015e-06
4.502640766e+00  6.8218350e-06
4.502670783e+00  7.1876829e-06
4.502700801e+00  7.5643305e-06
4.502730819e+00  7.9516493e-06
4.502760837e+00  8.3495011e-06
4.502790856e+00  8.7577405e-06
4.502820874e+00  9.1762137e-06
4.502850893e+00  9.6047553e-06
4.502880912e+00  1.0043180e-05
4.502910931e+00  1.0491270e-05
4.502940951e+00  1.0948759e-05
4.502970970e+00  1.1415310e-05
4.503000990e+00  1.1890496e-05
4.503031010e+00  1.2373772e-05
4.503061030e+00  1.2864467e-05
4.503091051e+00  1.3361779e-05
4.503121071e+00  1.3864796e-05
4.503151092e+00  1.4372539e-05
4.503181113e+00  1.4884027e-05
4.503211134e+00  1.5398356e-05
4.503241156e+00  1.5914776e-05
4.503271177e+00  1.6432755e-05
4.503301199e+00  1.6952015e-05
4.503331221e+00  1.7472539e-05
4.503361244e+00  1.7994548e-05
4.503391266e+00  1.8518456e-05
4.503421289e+00  1.9044832e-05
4.503451311e+00  1.9574357e-05
4.503481334e+00  2.0107812e-05
4.503511358e+00  2.0646075e-05
4.503541381e+00  2.1190130e-05
4.503571405e+00  2.1741072e-05
4.503601428e+00  2.2300094e-05
4.503631452e+00  2.2868436e-05
4.503661477e+00  2.3447303e-05
4.503691501e+00  2.4037754e-05
4.503721526e+00  2.4640584e-05
4.503751550e+00  2.5256237e-05
4.503781575e+00  2.5884758e-05
4.503811601e+00  2.6525803e-05
4.503841626e+00  2.7178703e-05
4.503871652e+00  2.7842552e-05
4.503901677e+00  2.8516288e-05
4.503931703e+00  2.9198746e-05
4.503961730e+00  2.9888677e-05
4.503991756e+00  3.0584709e-05
4.504021783e+00  3.1285303e-05
4.504051810e+00  3.1988712e-05
4.504081837e+00  3.2692969e-05
4.504111864e+00  3.3395935e-05
4.504141891e+00  3.4095408e-05
4.504171919e+00  3.4789268e-05
4.504201947e+00  3.5475641e-05
4.504231975e+00  3.6153030e-05
4.504262003e+00  3.6820389e-05
4.504292031e+00  3.7477126e-05
4.504322060e+00  3.8123028e-05
4.504352089e+00  3.8758141e-05
4.504382118e+00  3.9382647e-05
4.504412147e+00  3.9996774e-05
4.504442176e+00  4.0600756e-05
4.504472206e+00  4.1194865e-05
4.504502236e+00  4.1779483e-05
4.504532266e+00  4.2355208e-05
4.504562296e+00  4.2922921e-05
4.504592326e+00  4.3483803e-05
4.504622357e+00  4.4039241e-05
4.504652388e+00  4.4590627e-05
4.504682419e+00  4.5139056e-05
4.504712450e+00  4.5684981e-05
4.504742481e+00  4.6227933e-05
4.504772513e+00  4.6766394e-05
4.504802545e+00  4.7297933e-05
4.504832577e+00  4.7819621e-05
4.504862609e+00  4.8328694e-05
4.504892642e+00  4.8823338e-05
4.504922674e+00  4.9303374e-05
4.504952707e+00  4.9770637e-05
4.504982740e+00  5.0228858e-05
4.505012773e+00  5.0682952e-05
4.505042807e+00  5.1137811e-05
4.505072840e+00  5.1596840e-05
4.505102874e+00  5.2060617e-05
4.505132908e+00  5.2526047e-05
4.505162942e+00  5.2986280e-05
4.505192977e+00  5.3431416e-05
4.505223011e+00  5.3849827e-05
4.505253046e+00  5.4229707e-05
4.505283081e+00  5.4560476e-05
4.505313116e+00  5.4833702e-05
4.505343152e+00  5.5043364e-05
4.505373187e+00  5.5185473e-05
4.505403223e+00  5.5257166e-05
4.505433259e+00  5.5255497e-05
4.505463296e+00  5.5176277e-05
4.505493332e+00  5.5013179e-05
4.505523369e+00  5.4757344e-05
4.505553405e+00  5.4397599e-05
4.505583442e+00  5.3921293e-05
4.505613480e+00  5.3315736e-05
4.505643517e+00  5.2570297e-05
4.505673555e+00  5.1679244e-05
4.505703593e+00  5.0645476e-05
4.505733631e+00  4.9484991e-05
4.505763669e+00  4.8231499e-05
4.505793707e+00  4.6939977e-05
4.505823746e+00  4.5687432e-05
4.505853785e+00  4.4569255e-05
4.505883824e+00  4.3690358e-05
4.505913863e+00  4.3151804e-05
4.505943902e+00  4.3035387e-05
4.505973942e+00  4.3389832e-05
4.506003982e+00  4.4222321e-05
4.506034022e+00  4.5497717e-05
4.506064062e+00  4.7145621e-05
4.506094102e+00  4.9073142e-05
4.506124143e+00  5.1179798e-05
4.506154184e+00  5.3370914e-05
4.506184225e+00  5.5566923e-05
4.506214266e+00  5.7707696e-05
4.506244308e+00  5.9752496e-05
4.506274349e+00  6.1677105e-05
4.506304391e+00  6.3469795e-05
4.506334433e+00  6.5127472e-05
4.506364475e+00  6.6652697e-05
4.506394518e+00  6.8051731e-05
4.506424560e+00  6.9333354e-05
4.506454603e+00  7.0508059e-05
4.506484646e+00  7.1587463e-05
4.506514689e+00  7.2583149e-05
4.506544733e+00  7.3505512e-05
4.506574777e+00  7.4362261e-05
4.506604820e+00  7.5156856e-05
4.506634864e+00  7.5887046e-05
4.506664909e+00  7.6543618e-05
4.506694953e+00  7.7109515e-05
4.506724998e+00  7.7559756e-05
4.506755042e+00  7.7862813e-05
4.506785088e+00  7.7984434e-05
4.506815133e+00  7.7894725e-05
4.506845178e+00  7.7578532e-05
4.506875224e+00  7.7047490e-05
4.506905270e+00  7.6350362e-05
4.506935316e+00  7.5577015e-05
4.506965362e+00  7.4851900e-05
4.506995408e+00  7.4315674e-05
4.507025455e+00  7.4097874e-05
4.507055502e+00  7.4287816e-05
4.507085549e+00  7.4912760e-05
4.507115596e+00  7.5930835e-05
4.507145644e+00  7.7241298e-05
4.507175691e+00  7.8708779e-05
4.507205739e+00  8.0193581e-05
4.507235787e+00  8.1578942e-05
4.507265835e+00  8.2788377e-05
4.507295884e+00  8.3790483e-05
4.507325932e+00  8.4592817e-05
4.507355981e+00  8.5229077e-05
4.507386030e+00  8.5744425e-05
4.507416080e+00  8.6182835e-05
4.507446129e+00  8.6578629e-05
4.507476179e+00  8.6952769e-05
4.507506228e+00  8.7313211e-05
4.507536278e+00  8.7657987e-05
4.507566329e+00  8.7979437e-05
4.507596379e+00  8.8268268e-05
4.507626430e+00  8.8516518e-05
4.507656481e+00  8.8719111e-05
4.507686532e+00  8.8874146e-05
4.507716583e+00  8.8982226e-05
4.507746634e+00  8.9045736e-05
4.507776686e+00  8.9067772e-05
4.507806738e+00  8.9051570e-05
4.507836790e+00  8.9000159e-05
4.507866842e+00  8.8916274e-05
4.507896895e+00  8.8802388e-05
4.507926947e+00  8.8660816e-05
4.507957000e+00  8.8493785e-05
4.507987053e+00  8.8303451e-05
4.508017106e+00  8.8091858e-05
4.508047160e+00  8.7860852e-05
4.508077213e+00  8.7611962e-05
4.508107267e+00  8.7346341e-05
4.508137321e+00  8.7064729e-05
4.508167376e+00  8.6767535e-05
4.508197430e+00  8.6455035e-05
4.508227485e+00  8.6127676e-05
4.508257540e+00  8.5786440e-05
4.508287595e+00  8.5433151e-05
4.508317650e+00  8.5070596e-05
4.508347705e+00  8.4702339e-05
4.508377761e+00  8.4332199e-05
4.508407817e+00  8.3963464e-05
4.508437873e+00  8.3598057e-05
4.508467929e+00  8.3235914e-05
4.508497986e+00  8.2874784e-05
4.508528042e+00  8.2510554e-05
4.508558099e+00  8.2137984e-05
4.508588156e+00  8.1751632e-05
4.508618213e+00  8.1346688e-05
4.508648271e+00  8.0919501e-05
4.508678329e+00  8.0467714e-05
4.508708386e+00  7.9990077e-05
4.508738444e+00  7.9486044e-05
4.508768503e+00  7.8955373e-05
4.508798561e+00  7.8397820e-05
4.508828620e+00  7.7813013e-05
4.508858679e+00  7.7200473e-05
4.508888738e+00  7.6559730e-05
4.508918797e+00  7.5890463e-05
4.508948856e+00  7.5192591e-05
4.508978916e+00  7.4466331e-05
4.509008976e+00  7.3712254e-05
4.509039036e+00  7.2931404e-05
4.509069096e+00  7.2125543e-05
4.509099157e+00  7.1297492e-05
4.509129217e+00  7.0451475e-05
4.509159278e+00  6.9593254e-05
4.509189339e+00  6.8729892e-05
4.509219401e+00  6.7869013e-05
4.509249462e+00  6.7017670e-05
4.509279524e+00  6.6181071e-05
4.509309586e+00  6.5361562e-05
4.509339648e+00  6.4558196e-05
4.509369710e+00  6.3767053e-05
4.509399772e+00  6.2982192e-05
4.509429835e+00  6.2196936e-05
4.509459898e+00  6.1405093e-05
4.509489961e+00  6.0601821e-05
4.509520024e+00  5.9783992e-05
4.509550088e+00  5.8950114e-05
4.509580151e+00  5.8099972e-05
4.509610215e+00  5.7234178e-05
4.509640279e+00  5.6353770e-05
4.509670344e+00  5.5459938e-05
4.509700408e+00  5.4553871e-05
4.509730473e+00  5.3636693e-05
4.509760538e+00  5.2709448e-05
4.509790603e+00  5.1773093e-05
4.509820668e+00  5.0828477e-05
4.509850733e+00  4.9876308e-05
4.509880799e+00  4.8917125e-05
4.509910865e+00  4.7951270e-05
4.509940931e+00  4.6978878e-05
4.509970997e+00  4.5999907e-05
4.510001064e+00  4.5014167e-05
4.510031130e+00  4.4021369e-05
4.510061197e+00  4.3021154e-05
4.510091264e+00  4.2013119e-05
4.510121332e+00  4.0996824e-05
4.510151399e+00  3.9971803e-05
4.510181467e+00  3.8937635e-05
4.510211535e+00  3.7894076e-05
4.510241603e+00  3.6841294e-05
4.510271671e+00  3.5780159e-05
4.510301739e+00  3.4712512e-05
4.510331808e+00  3.3641281e-05
4.510361877e+00  3.2570340e-05
4.510391946e+00  3.1504056e-05
4.510422015e+00  3.0446599e-05
4.510452085e+00  2.9401214e-05
4.510482155e+00  2.8369688e-05
4.510512224e+00  2.7352230e-05
4.510542295e+00  2.6347848e-05
4.510572365e+00  2.5355094e-05
4.510602435e+00  2.4372951e-05
4.510632506e+00  2.3401543e-05
4.510662577e+00  2.2442414e-05
4.510692648e+00  2.1498318e-05
4.510722719e+00  2.0572580e-05
4.510752791e+00  1.9668287e-05
4.510782862e+00  1.8787560e-05
4.510812934e+00  1.7931149e-05
4.510843006e+00  1.7098417e-05
4.510873079e+00  1.6287679e-05
4.510903151e+00  1.5496727e-05
4.510933224e+00  1.4723383e-05
4.510963297e+00  1.3965918e-05
4.510993370e+00  1.3223290e-05
4.511023443e+00  1.2495194e-05
4.511053517e+00  1.1781980e-05
4.511083590e+00  1.1084497e-05
4.511113664e+00  1.0403921e-05
4.511143738e+00  9.7415943e-06
4.511173813e+00  9.0988855e-06
4.511203887e+00  8.4770897e-06
4.511233962e+00  7.8773579e-06
4.511264037e+00  7.3006555e-06
4.511294112e+00  6.7477483e-06
4.511324187e+00  6.2192100e-06
4.511354263e+00  5.7154484e-06
4.511384338e+00  5.2367423e-06
4.511414414e+00  4.7832765e-06
4.511444490e+00  4.3551724e-06
4.511474566e+00  3.9524871e-06
4.511504643e+00  3.5751925e-06
4.511534720e+00  3.2231303e-06
4.511564797e+00  2.8959619e-06
4.511594874e+00  2.5931328e-06
4.511624951e+00  2.3138668e-06
4.511655028e+00  2.0571969e-06
4.511685106e+00  1.8220257e-06
4.511715184e+00  1.6071961e-06
4.511745262e+00  1.4115551e-06
4.511775340e+00  1.2339948e-06
4.511805419e+00  1.0734670e-06
4.511835498e+00  9.2897640e-07
4.511865577e+00  7.9956210e-07
4.511895656e+00  6.8427721e-07
4.511925735e+00  5.8217403e-07
4.511955815e+00  4.9229735e-07
4.511985894e+00  4.1368567e-07
4.512015974e+00  3.4537785e-07
4.512046054e+00  2.8642306e-07
4.512076135e+00  2.3589178e-07
4.512106215e+00  1.9288644e-07
4.512136296e+00  1.5655105e-07
4.512166377e+00  1.2607914e-07
4.512196458e+00  1.0071991e-07
4.512226539e+00  7.9782180e-08
4.512256621e+00  6.2637112e-08
4.512286702e+00  4.8718222e-08
4.512316784e+00  3.7520444e-08
4.512346866e+00  2.8597737e-08
4.512376949e+00  2.1559779e-08
4.512407031e+00  1.6068061e-08
4.512437114e+00  1.1831685e-08
4.512467197e+00  8.6030843e-09
4.512497280e+00  6.1737806e-09
4.512527363e+00  4.3702599e-09
4.512557447e+00  3.0499683e-09
4.512587530e+00  2.0974391e-09
4.512617614e+00  1.4205672e-09
4.512647698e+00  9.4706761e-10
4.512677783e+00  6.2116820e-10
4.512707867e+00  4.0059153e-10
4.512737952e+00  2.5386686e-10
4.512768037e+00  1.5800160e-10
4.512798122e+00  9.6516186e-11
4.512828207e+00  5.7829126e-11
4.512858293e+00  3.3963986e-11
4.512888379e+00  1.9540119e-11
4.512918465e+00  1.1004750e-11
4.512948551e+00  6.0629025e-12
4.512978637e+00  3.2652924e-12
4.513008724e+00  1.7178807e-12
4.513038810e+00  8.8221895e-13
4.513068897e+00  4.4192288e-13
4.513098984e+00  2.1575595e-13
4.513129072e+00  1.0258056e-13
4.513159159e+00  4.7452592e-14
4.513189247e+00  2.1335643e-14
4.513219335e+00  9.3130461e-15
4.513249423e+00  3.9410634e-15
4.513279511e+00  1.6141620e-15
4.513309600e+00  6.3858797e-16
4.513339689e+00  2.4343662e-16
4.513369777e+00  8.9165525e-17
4.513399867e+00  3.1275957e-17
4.513429956e+00  1.0469433e-17
4.513460045e+00  3.3777212e-18
4.513490135e+00  1.0152297e-18
4.513520225e+00  2.8468823e-19
4.513550315e+00  7.4062807e-20
4.513580406e+00  1.7717305e-20
4.513610496e+00  3.8573069e-21
4.513640587e+00  7.5534156e-22
4.513670678e+00  1.3125010e-22
4.513700769e+00  1.9918379e-23
4.513730860e+00  2.5883765e-24
4.513760952e+00  2.7968571e-25
4.513791044e+00  2.3597905e-26
4.513821136e+00  1.2278405e-27
4.513851228e+00  2.6133931e-29
4.513881320e+00  4.8016339e-30
4.513911413e+00  1.7699663e-31
4.513941505e+00  4.2528857e-33
4.513971598e+00  6.7006831e-35
4.514001691e+00  6.5562512e-37
4.514031785e+00  1.7055660e-38
4.514061878e+00  2.1445001e-36
4.514091972e+00  2.0371109e-34
4.514122066e+00  1.2257509e-32
4.514152160e+00  4.9551320e-31
4.514182254e+00  1.4151505e-29
4.514212349e+00  2.9782046e-28
4.514242444e+00  4.7963137e-27
4.514272539e+00  6.1044005e-26
4.514302634e+00  6.3123872e-25
4.514332729e+00  5.4326112e-24
4.514362825e+00  3.9737429e-23
4.514392920e+00  2.5162043e-22
4.514423016e+00  1.4013123e-21
4.514453113e+00  6.9524598e-21
4.514483209e+00  3.1242150e-20
4.514513306e+00  1.2822595e-19
4.514543402e+00  4.8543698e-19
4.514573499e+00  1.7098681e-18
4.514603596e+00  5.6459198e-18
4.514633694e+00  1.7590837e-17
4.514663791e+00  5.2007370e-17
4.514693889e+00  1.4661624e-16
4.514723987e+00  3.9576580e-16
4.514754085e+00  1.0264143e-15
4.514784184e+00  2.5649907e-15
4.514814282e+00  6.1911895e-15
4.514844381e+00  1.4463110e-14
4.514874480e+00  3.2754833e-14
4.514904579e+00  7.1999088e-14
4.514934678e+00  1.5370044e-13
4.514964778e+00  3.1955777e-13
4.514994878e+00  6.4719372e-13
4.515024978e+00  1.2779449e-12
4.515055078e+00  2.4624187e-12
4.515085178e+00  4.6339888e-12
4.515115279e+00  8.5248555e-12
4.515145380e+00  1.5343956e-11
4.515175480e+00  2.7044767e-11
4.515205582e+00  4.6720226e-11
4.515235683e+00  7.9168739e-11
4.515265785e+00  1.3169083e-10
4.515295886e+00  2.1517823e-10
4.515325988e+00  3.4556392e-10
4.515356091e+00  5.4569753e-10
4.515386193e+00  8.4769988e-10
4.515416295e+00  1.2958336e-09
4.515446398e+00  1.9499043e-09
4.515476501e+00  2.8891850e-09
4.515506604e+00  4.2168337e-09
4.515536708e+00  6.0647569e-09
4.515566811e+00  8.5988581e-09
4.515596915e+00  1.2024598e-08
4.515627019e+00  1.6592785e-08
4.515657123e+00  2.2605513e-08
4.515687228e+00  3.0422131e-08
4.515717332e+00  4.0465109e-08
4.515747437e+00  5.3225628e-08
4.515777542e+00  6.9268613e-08
4.515807647e+00  8.9236907e-08
4.515837753e+00  1.1385419e-07
4.515867858e+00  1.4392627e-07
4.515897964e+00  1.8034031e-07
4.515928070e+00  2.2406178e-07
4.515958176e+00  2.7612874e-07
4.515988283e+00  3.3764333e-07
4.516018389e+00  4.0976029e-07
4.516048496e+00  4.9367217e-07
4.516078603e+00  5.9059099e-07
4.516108710e+00  7.0172612e-07
4.516138817e+00  8.2825772e-07
4.516168925e+00  9.7130563e-07
4.516199033e+00  1.1318930e-06
4.516229141e+00  1.3109046e-06
4.516259249e+00  1.5090390e-06
4.516289357e+00  1.7267546e-06
4.516319466e+00  1.9642085e-06
4.516349575e+00  2.2211889e-06
4.516379684e+00  2.4970390e-06
4.516409793e+00  2.7905749e-06
4.516439902e+00  3.0999958e-06
4.516470012e+00  3.4227996e-06
4.516500122e+00  3.7556902e-06
4.516530232e+00  4.0945017e-06
4.516560342e+00  4.4341419e-06
4.516590452e+00  4.7685710e-06
4.516620563e+00  5.0908397e-06
4.516650674e+00  5.3932237e-06
4.516680785e+00  5.6675138e-06
4.516710896e+00  5.9055420e-06
4.516741007e+00  6.1000422e-06
4.516771119e+00  6.2459246e-06
4.516801231e+00  6.3419819e-06
4.516831343e+00  6.3929037e-06
4.516861455e+00  6.4112892e-06
4.516891567e+00  6.4191501e-06
4.516921680e+00  6.4482950e-06
4.516951793e+00  6.5390648e-06
4.516981906e+00  6.7372147e-06
4.517012019e+00  7.0892216e-06
4.517042133e+00  7.6368344e-06
4.517072246e+00  8.4120176e-06
4.517102360e+00  9.4334179e-06
4.517132474e+00  1.0705094e-05
4.517162588e+00  1.2217614e-05
4.517192703e+00  1.3951009e-05
4.517222817e+00  1.5878656e-05
4.517252932e+00  1.7971169e-05
4.517283047e+00  2.0199585e-05
4.517313162e+00  2.2537578e-05
4.517343278e+00  2.4962741e-05
4.517373393e+00  2.7457187e-05
4.517403509e+00  3.0007700e-05
4.517433625e+00  3.2605559e-05
4.517463741e+00  3.5246043e-05
4.517493858e+00  3.7927581e-05
4.517523974e+00  4.0650572e-05
4.517554091e+00  4.3416038e-05
4.517584208e+00  4.6224374e-05
4.517614326e+00  4.9074488e-05
4.517644443e+00  5.1963516e-05
4.517674561e+00  5.4887113e-05
4.517704678e+00  5.7840112e-05
4.517734796e+00  6.0817298e-05
4.517764915e+00  6.3813968e-05
4.517795033e+00  6.6826187e-05
4.517825152e+00  6.9850707e-05
4.517855271e+00  7.2884730e-05
4.517885390e+00  7.5925671e-05
4.517915509e+00  7.8971070e-05
4.517945628e+00  8.2018705e-05
4.517975748e+00  8.5066849e-05
4.518005868e+00  8.8114531e-05
4.518035988e+00  9.1161700e-05
4.518066108e+00  9.4209167e-05
4.518096228e+00  9.7258328e-05
4.518126349e+00  1.0031073e-04
4.518156470e+00  1.0336756e-04
4.518186591e+00  1.0642931e-04
4.518216712e+00  1.0949551e-04
4.518246834e+00  1.1256480e-04
4.518276955e+00  1.1563512e-04
4.518307077e+00  1.1870408e-04
4.518337199e+00  1.2176929e-04
4.518367321e+00  1.2482862e-04
4.518397444e+00  1.2788026e-04
4.518427567e+00  1.3092262e-04
4.518457689e+00  1.3395401e-04
4.518487812e+00  1.3697219e-04
4.518517936e+00  1.3997386e-04
4.518548059e+00  1.4295424e-04
4.518578183e+00  1.4590674e-04
4.518608307e+00  1.4882281e-04
4.518638431e+00  1.5169198e-04
4.518668555e+00  1.5450196e-04
4.518698679e+00  1.5723881e-04
4.518728804e+00  1.5988702e-04
4.518758929e+00  1.6242941e-04
4.518789054e+00  1.6484692e-04
4.518819179e+00  1.6711827e-04
4.518849305e+00  1.6921939e-04
4.518879430e+00  1.7112297e-04
4.518909556e+00  1.7279783e-04
4.518939682e+00  1.7420866e-04
4.518969809e+00  1.7531538e-04
4.518999935e+00  1.7607270e-04
4.519030062e+00  1.7642968e-04
4.519060189e+00  1.7632908e-04
4.519090316e+00  1.7570671e-04
4.519120443e+00  1.7449111e-04
4.519150570e+00  1.7260440e-04
4.519180698e+00  1.6996592e-04
4.519210826e+00  1.6650075e-04
4.519240954e+00  1.6215582e-04
4.519271082e+00  1.5692501e-04
4.519301211e+00  1.5088199e-04
4.519331339e+00  1.4421539e-04
