# Wave/freq Total
4.500000000e+00  2.4142149e-04
4.500030000e+00  2.4164886e-04
4.500060000e+00  2.4192819e-04
4.500090001e+00  2.4225840e-04
4.500120001e+00  2.4263487e-04
4.500150002e+00  2.4304987e-04
4.500180003e+00  2.4349351e-04
4.500210004e+00  2.4395488e-04
4.500240006e+00  2.4442334e-04
4.500270007e+00  2.4488964e-04
4.500300009e+00  2.4534667e-04
4.500330011e+00  2.4578983e-04
4.500360013e+00  2.4621678e-04
4.500390016e+00  2.4662749e-04
4.500420018e+00  2.4702288e-04
4.500450021e+00  2.4740395e-04
4.500480024e+00  2.4777026e-04
4.500510027e+00  2.4811790e-04
4.500540031e+00  2.4843674e-04
4.500570034e+00  2.4870700e-04
4.500600038e+00  2.4889547e-04
4.500630042e+00  2.4895243e-04
4.500660046e+00  2.4881154e-04
4.500690051e+00  2.4839540e-04
4.500720055e+00  2.4762949e-04
4.500750060e+00  2.4646511e-04
4.500780065e+00  2.4490819e-04
4.500810070e+00  2.4304605e-04
4.500840076e+00  2.4106099e-04
4.500870081e+00  2.3921992e-04
4.500900087e+00  2.3783556e-04
4.500930093e+00  2.3720480e-04
4.500960099e+00  2.3754043e-04
4.500990106e+00  2.3891783e-04
4.501020112e+00  2.4125503e-04
4.501050119e+00  2.4433329e-04
4.501080126e+00  2.4785084e-04
4.501110133e+00  2.5149127e-04
4.501140141e+00  2.5498498e-04
4.501170148e+00  2.5814760e-04
4.501200156e+00  2.6088996e-04
4.501230164e+00  2.6320437e-04
4.501260172e+00  2.6513792e-04
4.501290181e+00  2.6676404e-04
4.501320189e+00  2.6816002e-04
4.501350198e+00  2.6939351e-04
4.501380207e+00  2.7051717e-04
4.501410216e+00  2.7156882e-04
4.501440226e+00  2.7257425e-04
4.501470235e+00  2.7355060e-04
4.501500245e+00  2.7450937e-04
4.501530255e+00  2.7545854e-04
4.501560265e+00  2.7640401e-04
4.501590276e+00  2.7735059e-04
4.501620286e+00  2.7830224e-04
4.501650297e+00  2.7926285e-04
4.501680308e+00  2.8023586e-04
4.501710319e+00  2.8122426e-04
4.501740331e+00  2.8223042e-04
4.501770342e+00  2.8325586e-04
4.501800354e+00  2.8430106e-04
4.501830366e+00  2.8536552e-04
4.501860378e+00  2.8644778e-04
4.501890391e+00  2.8754573e-04
4.501920403e+00  2.8865689e-04
4.501950416e+00  2.8977869e-04
4.501980429e+00  2.9090870e-04
4.502010442e+00  2.9204474e-04
4.502040456e+00  2.9318496e-04
4.502070469e+00  2.9432771e-04
4.502100483e+00  2.9547155e-04
4.502130497e+00  2.9661515e-04
4.502160511e+00  2.9775728e-04
4.502190526e+00  2.9889684e-04
4.502220540e+00  3.0003295e-04
4.502250555e+00  3.0116505e-04
4.502280570e+00  3.0229292e-04
4.502310585e+00  3.0341679e-04
4.502340601e+00  3.0453723e-04
4.502370616e+00  3.0565511e-04
4.502400632e+00  3.0677141e-04
4.502430648e+00  3.0788711e-04
4.502460664e+00  3.0900303e-04
4.502490681e+00  3.1011973e-04
4.502520697e+00  3.1123740e-04
4.502550714e+00  3.1235587e-04
4.502580731e+00  3.1347458e-04
4.502610748e+00  3.1459266e-04
4.502640766e+00  3.1570900e-04
4.502670783e+00  3.1682244e-04
4.502700801e+00  3.1793189e-04
4.502730819e+00  3.1903651e-04
4.502760837e+00  3.2013584e-04
4.502790856e+00  3.2122986e-04
4.502820874e+00  3.2231894e-04
4.502850893e+00  3.2340369e-04
4.502880912e+00  3.2448473e-04
4.502910931e+00  3.2556234e-04
4.502940951e+00  3.2663608e-04
4.502970970e+00  3.2770431e-04
4.503000990e+00  3.2876378e-04
4.503031010e+00  3.2980925e-04
4.503061030e+00  3.3083327e-04
4.503091051e+00  3.3182633e-04
4.503121071e+00  3.3277732e-04
4.503151092e+00  3.3367447e-04
4.503181113e+00  3.3450668e-04
4.503211134e+00  3.3526488e-04
4.503241156e+00  3.3594333e-04
4.503271177e+00  3.3654047e-04
4.503301199e+00  3.3705910e-04
4.503331221e+00  3.3750594e-04
4.503361244e+00  3.3789067e-04
4.503391266e+00  3.3822487e-04
4.503421289e+00  3.3852100e-04
4.503451311e+00  3.3879184e-04
4.503481334e+00  3.3905042e-04
4.503511358e+00  3.3931031e-04
4.503541381e+00  3.3958614e-04
4.503571405e+00  3.3989394e-04
4.503601428e+00  3.4025098e-04
4.503631452e+00  3.4067514e-04
4.503661477e+00  3.4118355e-04
4.503691501e+00  3.4179091e-04
4.503721526e+00  3.4250786e-04
4.503751550e+00  3.4333970e-04
4.503781575e+00  3.4428594e-04
4.503811601e+00  3.4534069e-04
4.503841626e+00  3.4649380e-04
4.503871652e+00  3.4773232e-04
4.503901677e+00  3.4904197e-04
4.503931703e+00  3.5040815e-04
4.503961730e+00  3.5181633e-04
4.503991756e+00  3.5325193e-04
4.504021783e+00  3.5469978e-04
4.504051810e+00  3.5614369e-04
4.504081837e+00  3.5756630e-04
4.504111864e+00  3.5894951e-04
4.504141891e+00  3.6027550e-04
4.504171919e+00  3.6152817e-04
4.504201947e+00  3.6269467e-04
4.504231975e+00  3.6376667e-04
4.504262003e+00  3.6474094e-04
4.504292031e+00  3.6561922e-04
4.504322060e+00  3.6640730e-04
4.504352089e+00  3.6711372e-04
4.504382118e+00  3.6774846e-04
4.504412147e+00  3.6832187e-04
4.504442176e+00  3.6884424e-04
4.504472206e+00  3.6932595e-04
4.504502236e+00  3.6977806e-04
4.504532266e+00  3.7021311e-04
4.504562296e+00  3.7064573e-04
4.504592326e+00  3.7109278e-04
4.504622357e+00  3.7157282e-04
4.504652388e+00  3.7210482e-04
4.504682419e+00  3.7270632e-04
4.504712450e+00  3.7339133e-04
4.504742481e+00  3.7416856e-04
4.504772513e+00  3.7504039e-04
4.504802545e+00  3.7600287e-04
4.504832577e+00  3.7704684e-04
4.504862609e+00  3.7815968e-04
4.504892642e+00  3.7932736e-04
4.504922674e+00  3.8053613e-04
4.504952707e+00  3.8177363e-04
4.504982740e+00  3.8302916e-04
4.505012773e+00  3.8429351e-04
4.505042807e+00  3.8555843e-04
4.505072840e+00  3.8681621e-04
4.505102874e+00  3.8805951e-04
4.505132908e+00  3.8928153e-04
4.505162942e+00  3.9047635e-04
4.505192977e+00  3.9163947e-04
4.505223011e+00  3.9276811e-04
4.505253046e+00  3.9386137e-04
4.505283081e+00  3.9492001e-04
4.505313116e+00  3.9594611e-04
4.505343152e+00  3.9694263e-04
4.505373187e+00  3.9791294e-04
4.505403223e+00  3.9886069e-04
4.505433259e+00  3.9978973e-04
4.505463296e+00  4.0070428e-04
4.505493332e+00  4.0160919e-04
4.505523369e+00  4.0251004e-04
4.505553405e+00  4.0341313e-04
4.505583442e+00  4.0432525e-04
4.505613480e+00  4.0525317e-04
4.505643517e+00  4.0620304e-04
4.505673555e+00  4.0717979e-04
4.505703593e+00  4.0818662e-04
4.505733631e+00  4.0922481e-04
4.505763669e+00  4.1029384e-04
4.505793707e+00  4.1139179e-04
4.505823746e+00  4.1251598e-04
4.505853785e+00  4.1366352e-04
4.505883824e+00  4.1483184e-04
4.505913863e+00  4.1601869e-04
4.505943902e+00  4.1722198e-04
4.505973942e+00  4.1843908e-04
4.506003982e+00  4.1966623e-04
4.506034022e+00  4.2089787e-04
4.506064062e+00  4.2212650e-04
4.506094102e+00  4.2334295e-04
4.506124143e+00  4.2453719e-04
4.506154184e+00  4.2569932e-04
4.506184225e+00  4.2682062e-04
4.506214266e+00  4.2789422e-04
4.506244308e+00  4.2891532e-04
4.506274349e+00  4.2988094e-04
4.506304391e+00  4.3078931e-04
4.506334433e+00  4.3163925e-04
4.506364475e+00  4.3242950e-04
4.506394518e+00  4.3315845e-04
4.506424560e+00  4.3382389e-04
4.506454603e+00  4.3442277e-04
4.506484646e+00  4.3495175e-04
4.506514689e+00  4.3540557e-04
4.506544733e+00  4.3577623e-04
4.506574777e+00  4.3605039e-04
4.506604820e+00  4.3620530e-04
4.506634864e+00  4.3620294e-04
4.506664909e+00  4.3598258e-04
4.506694953e+00  4.3545309e-04
4.506724998e+00  4.3448807e-04
4.506755042e+00  4.3292885e-04
4.506785088e+00  4.3060177e-04
4.506815133e+00  4.2735446e-04
4.506845178e+00  4.2311119e-04
4.506875224e+00  4.1793835e-04
4.506905270e+00  4.1210076e-04
4.506935316e+00  4.0608372e-04
4.506965362e+00  4.0055834e-04
4.506995408e+00  3.9628291e-04
4.507025455e+00  3.9395624e-04
4.507055502e+00  3.9406157e-04
4.507085549e+00  3.9674958e-04
4.507115596e+00  4.0180018e-04
4.507145644e+00  4.0867638e-04
4.507175691e+00  4.1665157e-04
4.507205739e+00  4.2496755e-04
4.507235787e+00  4.3297503e-04
4.507265835e+00  4.4022147e-04
4.507295884e+00  4.4647466e-04
4.507325932e+00  4.5169277e-04
4.507355981e+00  4.5596482e-04
4.507386030e+00  4.5944641e-04
4.507416080e+00  4.6230798e-04
4.507446129e+00  4.6470273e-04
4.507476179e+00  4.6675285e-04
4.507506228e+00  4.6854833e-04
4.507536278e+00  4.7015233e-04
4.507566329e+00  4.7160828e-04
4.507596379e+00  4.7294618e-04
4.507626430e+00  4.7418728e-04
4.507656481e+00  4.7534721e-04
4.507686532e+00  4.7643786e-04
4.507716583e+00  4.7746811e-04
4.507746634e+00  4.7844551e-04
4.507776686e+00  4.7937583e-04
4.507806738e+00  4.8026380e-04
4.507836790e+00  4.8111346e-04
4.507866842e+00  4.8192858e-04
4.507896895e+00  4.8271306e-04
4.507926947e+00  4.8347133e-04
4.507957000e+00  4.8420860e-04
4.507987053e+00  4.8493102e-04
4.508017106e+00  4.8564556e-04
4.508047160e+00  4.8635973e-04
4.508077213e+00  4.8708120e-04
4.508107267e+00  4.8781735e-04
4.508137321e+00  4.8857491e-04
4.508167376e+00  4.8935977e-04
4.508197430e+00  4.9017704e-04
4.508227485e+00  4.9103121e-04
4.508257540e+00  4.9192636e-04
4.508287595e+00  4.9286624e-04
4.508317650e+00  4.9385415e-04
4.508347705e+00  4.9489246e-04
4.508377761e+00  4.9598192e-04
4.508407817e+00  4.9712101e-04
4.508437873e+00  4.9830534e-04
4.508467929e+00  4.9952752e-04
4.508497986e+00  5.0077746e-04
4.508528042e+00  5.0204310e-04
4.508558099e+00  5.0331143e-04
4.508588156e+00  5.0456960e-04
4.508618213e+00  5.0580586e-04
4.508648271e+00  5.0701008e-04
4.508678329e+00  5.0817400e-04
4.508708386e+00  5.0929093e-04
4.508738444e+00  5.1035539e-04
4.508768503e+00  5.1136272e-04
4.508798561e+00  5.1230895e-04
4.508828620e+00  5.1319105e-04
4.508858679e+00  5.1400752e-04
4.508888738e+00  5.1475914e-04
4.508918797e+00  5.1544968e-04
4.508948856e+00  5.1608619e-04
4.508978916e+00  5.1667887e-04
4.509008976e+00  5.1724037e-04
4.509039036e+00  5.1778477e-04
4.509069096e+00  5.1832639e-04
4.509099157e+00  5.1887880e-04
4.509129217e+00  5.1945409e-04
4.509159278e+00  5.2006270e-04
4.509189339e+00  5.2071354e-04
4.509219401e+00  5.2141448e-04
4.509249462e+00  5.2217273e-04
4.509279524e+00  5.2299508e-04
4.509309586e+00  5.2388776e-04
4.509339648e+00  5.2485586e-04
4.509369710e+00  5.2590268e-04
4.509399772e+00  5.2702905e-04
4.509429835e+00  5.2823298e-04
4.509459898e+00  5.2950982e-04
4.509489961e+00  5.3085283e-04
4.509520024e+00  5.3225412e-04
4.509550088e+00  5.3370566e-04
4.509580151e+00  5.3520020e-04
4.509610215e+00  5.3673190e-04
4.509640279e+00  5.3829672e-04
4.509670344e+00  5.3989242e-04
4.509700408e+00  5.4151854e-04
4.509730473e+00  5.4317602e-04
4.509760538e+00  5.4486685e-04
4.509790603e+00  5.4659347e-04
4.509820668e+00  5.4835809e-04
4.509850733e+00  5.5016198e-04
4.509880799e+00  5.5200472e-04
4.509910865e+00  5.5388378e-04
4.509940931e+00  5.5579426e-04
4.509970997e+00  5.5772903e-04
4.510001064e+00  5.5967915e-04
4.510031130e+00  5.6163446e-04
4.510061197e+00  5.6358412e-04
4.510091264e+00  5.6551702e-04
4.510121332e+00  5.6742186e-04
4.510151399e+00  5.6928697e-04
4.510181467e+00  5.7109993e-04
4.510211535e+00  5.7284733e-04
4.510241603e+00  5.7451485e-04
4.510271671e+00  5.7608792e-04
4.510301739e+00  5.7755300e-04
4.510331808e+00  5.7889934e-04
4.510361877e+00  5.8012062e-04
4.510391946e+00  5.8121631e-04
4.510422015e+00  5.8219208e-04
4.510452085e+00  5.8305918e-04
4.510482155e+00  5.8383302e-04
4.510512224e+00  5.8453102e-04
4.510542295e+00  5.8517049e-04
4.510572365e+00  5.8576690e-04
4.510602435e+00  5.8633291e-04
4.510632506e+00  5.8687837e-04
4.510662577e+00  5.8741134e-04
4.510692648e+00  5.8793979e-04
4.510722719e+00  5.8847367e-04
4.510752791e+00  5.8902650e-04
4.510782862e+00  5.8961596e-04
4.510812934e+00  5.9026284e-04
4.510843006e+00  5.9098827e-04
4.510873079e+00  5.9180992e-04
4.510903151e+00  5.9273808e-04
4.510933224e+00  5.9377307e-04
4.510963297e+00  5.9490483e-04
4.510993370e+00  5.9611505e-04
4.511023443e+00  5.9738105e-04
4.511053517e+00  5.9868049e-04
4.511083590e+00  5.9999534e-04
4.511113664e+00  6.0131441e-04
4.511143738e+00  6.0263410e-04
4.511173813e+00  6.0395752e-04
4.511203887e+00  6.0529280e-04
4.511233962e+00  6.0665094e-04
4.511264037e+00  6.0804377e-04
4.511294112e+00  6.0948216e-04
4.511324187e+00  6.1097463e-04
4.511354263e+00  6.1252643e-04
4.511384338e+00  6.1413900e-04
4.511414414e+00  6.1581006e-04
4.511444490e+00  6.1753405e-04
4.511474566e+00  6.1930290e-04
4.511504643e+00  6.2110687e-04
4.511534720e+00  6.2293522e-04
4.511564797e+00  6.2477651e-04
4.511594874e+00  6.2661852e-04
4.511624951e+00  6.2844782e-04
4.511655028e+00  6.3024929e-04
4.511685106e+00  6.3200579e-04
4.511715184e+00  6.3369844e-04
4.511745262e+00  6.3530748e-04
4.511775340e+00  6.3681386e-04
4.511805419e+00  6.3820127e-04
4.511835498e+00  6.3945815e-04
4.511865577e+00  6.4057918e-04
4.511895656e+00  6.4156590e-04
4.511925735e+00  6.4242637e-04
4.511955815e+00  6.4317381e-04
4.511985894e+00  6.4382488e-04
4.512015974e+00  6.4439788e-04
4.512046054e+00  6.4491145e-04
4.512076135e+00  6.4538402e-04
4.512106215e+00  6.4583385e-04
4.512136296e+00  6.4627960e-04
4.512166377e+00  6.4674076e-04
4.512196458e+00  6.4723776e-04
4.512226539e+00  6.4779115e-04
4.512256621e+00  6.4842003e-04
4.512286702e+00  6.4913977e-04
4.512316784e+00  6.4995957e-04
4.512346866e+00  6.5088042e-04
4.512376949e+00  6.5189399e-04
4.512407031e+00  6.5298275e-04
4.512437114e+00  6.5412110e-04
4.512467197e+00  6.5527728e-04
4.512497280e+00  6.5641541e-04
4.512527363e+00  6.5749704e-04
4.512557447e+00  6.5848186e-04
4.512587530e+00  6.5932758e-04
4.512617614e+00  6.5998865e-04
4.512647698e+00  6.6041508e-04
4.512677783e+00  6.6055081e-04
4.512707867e+00  6.6033083e-04
4.512737952e+00  6.5967902e-04
4.512768037e+00  6.5850434e-04
4.512798122e+00  6.5669509e-04
4.512828207e+00  6.5411103e-04
4.512858293e+00  6.5057431e-04
4.512888379e+00  6.4586257e-04
4.512918465e+00  6.3971119e-04
4.512948551e+00  6.3183465e-04
4.512978637e+00  6.2197699e-04
4.513008724e+00  6.0999669e-04
4.513038810e+00  5.9597847e-04
4.513068897e+00  5.8034782e-04
4.513098984e+00  5.6394761e-04
4.513129072e+00  5.4803151e-04
4.513159159e+00  5.3414271e-04
4.513189247e+00  5.2388051e-04
4.513219335e+00  5.1860078e-04
4.513249423e+00  5.1913058e-04
4.513279511e+00  5.2558453e-04
4.513309600e+00  5.3734261e-04
4.513339689e+00  5.5319626e-04
4.513369777e+00  5.7161402e-04
4.513399867e+00  5.9104291e-04
4.513429956e+00  6.1016127e-04
4.513460045e+00  6.2802788e-04
4.513490135e+00  6.4411503e-04
4.513520225e+00  6.5825023e-04
4.513550315e+00  6.7050977e-04
4.513580406e+00  6.8110619e-04
4.513610496e+00  6.9029779e-04
4.513640587e+00  6.9833093e-04
4.513670678e+00  7.0541282e-04
4.513700769e+00  7.1170566e-04
4.513730860e+00  7.1733243e-04
4.513760952e+00  7.2238690e-04
4.513791044e+00  7.2694344e-04
4.513821136e+00  7.3106475e-04
4.513851228e+00  7.3480717e-04
4.513881320e+00  7.3822332e-04
4.513911413e+00  7.4136346e-04
4.513941505e+00  7.4427580e-04
4.513971598e+00  7.4700482e-04
4.514001691e+00  7.4959052e-04
4.514031785e+00  7.5206748e-04
4.514061878e+00  7.5446460e-04
4.514091972e+00  7.5680539e-04
4.514122066e+00  7.5910893e-04
4.514152160e+00  7.6139105e-04
4.514182254e+00  7.6366545e-04
4.514212349e+00  7.6594444e-04
4.514242444e+00  7.6823922e-04
4.514272539e+00  7.7055955e-04
4.514302634e+00  7.7291326e-04
4.514332729e+00  7.7530572e-04
4.514362825e+00  7.7773957e-04
4.514392920e+00  7.8021491e-04
4.514423016e+00  7.8272969e-04
4.514453113e+00  7.8528026e-04
4.514483209e+00  7.8786182e-04
4.514513306e+00  7.9046851e-04
4.514543402e+00  7.9309312e-04
4.514573499e+00  7.9572657e-04
4.514603596e+00  7.9835732e-04
4.514633694e+00  8.0097111e-04
4.514663791e+00  8.0355109e-04
4.514693889e+00  8.0607869e-04
4.514723987e+00  8.0853504e-04
4.514754085e+00  8.1090268e-04
4.514784184e+00  8.1316735e-04
4.514814282e+00  8.1531929e-04
4.514844381e+00  8.1735377e-04
4.514874480e+00  8.1927091e-04
4.514904579e+00  8.2107470e-04
4.514934678e+00  8.2277181e-04
4.514964778e+00  8.2437053e-04
4.514994878e+00  8.2588015e-04
4.515024978e+00  8.2731101e-04
4.515055078e+00  8.2867499e-04
4.515085178e+00  8.2998630e-04
4.515115279e+00  8.3126192e-04
4.515145380e+00  8.3252168e-04
4.515175480e+00  8.3378745e-04
4.515205582e+00  8.3508194e-04
4.515235683e+00  8.3642679e-04
4.515265785e+00  8.3784093e-04
4.515295886e+00  8.3933907e-04
4.515325988e+00  8.4093100e-04
4.515356091e+00  8.4262159e-04
4.515386193e+00  8.4441142e-04
4.515416295e+00  8.4629783e-04
4.515446398e+00  8.4827587e-04
4.515476501e+00  8.5033903e-04
4.515506604e+00  8.5247962e-04
4.515536708e+00  8.5468903e-04
4.515566811e+00  8.5695811e-04
4.515596915e+00  8.5927786e-04
4.515627019e+00  8.6164044e-04
4.515657123e+00  8.6404012e-04
4.515687228e+00  8.6647371e-04
4.515717332e+00  8.6894017e-04
4.515747437e+00  8.7143920e-04
4.515777542e+00  8.7396936e-04
4.515807647e+00  8.7652633e-04
4.515837753e+00  8.7910211e-04
4.515867858e+00  8.8168540e-04
4.515897964e+00  8.8426315e-04
4.515928070e+00  8.8682273e-04
4.515958176e+00  8.8935390e-04
4.515988283e+00  8.9185026e-04
4.516018389e+00  8.9430965e-04
4.516048496e+00  8.9673379e-04
4.516078603e+00  8.9912743e-04
4.516108710e+00  9.0149725e-04
4.516138817e+00  9.0385091e-04
4.516168925e+00  9.0619620e-04
4.516199033e+00  9.0854045e-04
4.516229141e+00  9.1089010e-04
4.516259249e+00  9.1325050e-04
4.516289357e+00  9.1562578e-04
4.516319466e+00  9.1801894e-04
4.516349575e+00  9.2043203e-04
4.516379684e+00  9.2286637e-04
4.516409793e+00  9.2532276e-04
4.516439902e+00  9.2780165e-04
4.516470012e+00  9.3030311e-04
4.516500122e+00  9.3282666e-04
4.516530232e+00  9.3537112e-04
4.516560342e+00  9.3793433e-04
4.516590452e+00  9.4051306e-04
4.516620563e+00  9.4310303e-04
4.516650674e+00  9.4569913e-04
4.516680785e+00  9.4829579e-04
4.516710896e+00  9.5088739e-04
4.516741007e+00  9.5346870e-04
4.516771119e+00  9.5603513e-04
4.516801231e+00  9.5858294e-04
4.516831343e+00  9.6110911e-04
4.516861455e+00  9.6361127e-04
4.516891567e+00  9.6608745e-04
4.516921680e+00  9.6853611e-04
4.516951793e+00  9.7095615e-04
4.516981906e+00  9.7334729e-04
4.517012019e+00  9.7571048e-04
4.517042133e+00  9.7804834e-04
4.517072246e+00  9.8036550e-04
4.517102360e+00  9.8266867e-04
4.517132474e+00  9.8496633e-04
4.517162588e+00  9.8726825e-04
4.517192703e+00  9.8958471e-04
4.517222817e+00  9.9192577e-04
4.517252932e+00  9.9430069e-04
4.517283047e+00  9.9671757e-04
4.517313162e+00  9.9918338e-04
4.517343278e+00  1.0017041e-03
4.517373393e+00  1.0042852e-03
4.517403509e+00  1.0069313e-03
4.517433625e+00  1.0096465e-03
4.517463741e+00  1.0124330e-03
4.517493858e+00  1.0152906e-03
4.517523974e+00  1.0182156e-03
4.517554091e+00  1.0211997e-03
4.517584208e+00  1.0242301e-03
4.517614326e+00  1.0272895e-03
4.517644443e+00  1.0303577e-03
4.517674561e+00  1.0334129e-03
4.517704678e+00  1.0364332e-03
4.517734796e+00  1.0393979e-03
4.517764915e+00  1.0422889e-03
4.517795033e+00  1.0450902e-03
4.517825152e+00  1.0477881e-03
4.517855271e+00  1.0503701e-03
4.517885390e+00  1.0528247e-03
4.517915509e+00  1.0551407e-03
4.517945628e+00  1.0573084e-03
4.517975748e+00  1.0593204e-03
4.518005868e+00  1.0611727e-03
4.518035988e+00  1.0628665e-03
4.518066108e+00  1.0644084e-03
4.518096228e+00  1.0658103e-03
4.518126349e+00  1.0670881e-03
4.518156470e+00  1.0682598e-03
4.518186591e+00  1.0693437e-03
4.518216712e+00  1.0703560e-03
4.518246834e+00  1.0713101e-03
4.518276955e+00  1.0722155e-03
4.518307077e+00  1.0730781e-03
4.518337199e+00  1.0739010e-03
4.518367321e+00  1.0746846e-03
4.518397444e+00  1.0754270e-03
4.518427567e+00  1.0761233e-03
4.518457689e+00  1.0767647e-03
4.518487812e+00  1.0773369e-03
4.518517936e+00  1.0778184e-03
4.518548059e+00  1.0781793e-03
4.518578183e+00  1.0783812e-03
4.518608307e+00  1.0783770e-03
4.518638431e+00  1.0781119e-03
4.518668555e+00  1.0775243e-03
4.518698679e+00  1.0765462e-03
4.518728804e+00  1.0751037e-03
4.518758929e+00  1.0731159e-03
4.518789054e+00  1.0704938e-03
4.518819179e+00  1.0671379e-03
4.518849305e+00  1.0629362e-03
4.518879430e+00  1.0577616e-03
4.518909556e+00  1.0514701e-03
4.518939682e+00  1.0438995e-03
4.518969809e+00  1.0348678e-03
4.518999935e+00  1.0241716e-03
4.519030062e+00  1.0115858e-03
4.519060189e+00  9.9686089e-04
4.519090316e+00  9.7972204e-04
4.519120443e+00  9.5986871e-04
4.519150570e+00  9.3698006e-04
4.519180698e+00  9.1073303e-04
4.519210826e+00  8.8084313e-04
4.519240954e+00  8.4713898e-04
4.519271082e+00  8.0967715e-04
4.519301211e+00  7.6889103e-04
4.519331339e+00  7.2574777e-04
