# Wave/freq Total
2.750000000e+00  7.8844568e-01
2.750018333e+00  7.8864971e-01
2.750036667e+00  7.8888950e-01
2.750055000e+00  7.8915855e-01
2.750073334e+00  7.8944715e-01
2.750091668e+00  7.8974347e-01
2.750110002e+00  7.9003505e-01
2.750128336e+00  7.9031001e-01
2.750146670e+00  7.9055805e-01
2.750165004e+00  7.9077091e-01
2.750183339e+00  7.9094244e-01
2.750201673e+00  7.9106841e-01
2.750220008e+00  7.9114630e-01
2.750238343e+00  7.9117523e-01
2.750256678e+00  7.9115573e-01
2.750275013e+00  7.9108966e-01
2.750293348e+00  7.9097997e-01
2.750311683e+00  7.9083070e-01
2.750330019e+00  7.9064742e-01
2.750348354e+00  7.9043844e-01
2.750366690e+00  7.9021627e-01
2.750385026e+00  7.8999891e-01
2.750403362e+00  7.8980947e-01
2.750421698e+00  7.8967352e-01
2.750440034e+00  7.8961400e-01
2.750458370e+00  7.8964515e-01
2.750476706e+00  7.8976748e-01
2.750495043e+00  7.8996599e-01
2.750513380e+00  7.9021278e-01
2.750531716e+00  7.9047353e-01
2.750550053e+00  7.9071588e-01
2.750568390e+00  7.9091699e-01
2.750586727e+00  7.9106811e-01
2.750605065e+00  7.9117478e-01
2.750623402e+00  7.9125320e-01
2.750641739e+00  7.9132404e-01
2.750660077e+00  7.9140587e-01
2.750678415e+00  7.9151009e-01
2.750696753e+00  7.9163869e-01
2.750715091e+00  7.9178502e-01
2.750733429e+00  7.9193687e-01
2.750751767e+00  7.9208064e-01
2.750770105e+00  7.9220510e-01
2.750788444e+00  7.9230379e-01
2.750806782e+00  7.9237565e-01
2.750825121e+00  7.9242423e-01
2.750843460e+00  7.9245586e-01
2.750861799e+00  7.9247759e-01
2.750880138e+00  7.9249559e-01
2.750898477e+00  7.9251398e-01
2.750916816e+00  7.9253460e-01
2.750935156e+00  7.9255728e-01
2.750953495e+00  7.9258056e-01
2.750971835e+00  7.9260254e-01
2.750990175e+00  7.9262146e-01
2.751008515e+00  7.9263620e-01
2.751026855e+00  7.9264630e-01
2.751045195e+00  7.9265195e-01
2.751063535e+00  7.9265368e-01
2.751081876e+00  7.9265217e-01
2.751100216e+00  7.9264810e-01
2.751118557e+00  7.9264198e-01
2.751136898e+00  7.9263420e-01
2.751155239e+00  7.9262495e-01
2.751173580e+00  7.9261434e-01
2.751191921e+00  7.9260232e-01
2.751210262e+00  7.9258881e-01
2.751228604e+00  7.9257356e-01
2.751246945e+00  7.9255615e-01
2.751265287e+00  7.9253586e-01
2.751283629e+00  7.9251141e-01
2.751301970e+00  7.9248074e-01
2.751320312e+00  7.9244055e-01
2.751338655e+00  7.9238600e-01
2.751356997e+00  7.9231054e-01
2.751375339e+00  7.9220615e-01
2.751393682e+00  7.9206437e-01
2.751412024e+00  7.9187810e-01
2.751430367e+00  7.9164418e-01
2.751448710e+00  7.9136611e-01
2.751467053e+00  7.9105602e-01
2.751485396e+00  7.9073477e-01
2.751503739e+00  7.9042939e-01
2.751522083e+00  7.9016790e-01
2.751540426e+00  7.8997248e-01
2.751558770e+00  7.8985293e-01
2.751577113e+00  7.8980265e-01
2.751595457e+00  7.8979865e-01
2.751613801e+00  7.8980597e-01
2.751632145e+00  7.8978545e-01
2.751650490e+00  7.8970255e-01
2.751668834e+00  7.8953480e-01
2.751687178e+00  7.8927605e-01
2.751705523e+00  7.8893622e-01
2.751723868e+00  7.8853710e-01
2.751742213e+00  7.8810553e-01
2.751760557e+00  7.8766439e-01
2.751778903e+00  7.8722459e-01
2.751797248e+00  7.8677821e-01
2.751815593e+00  7.8629378e-01
2.751833938e+00  7.8571406e-01
2.751852284e+00  7.8495617e-01
2.751870630e+00  7.8391462e-01
2.751888976e+00  7.8246830e-01
2.751907321e+00  7.8049344e-01
2.751925667e+00  7.7788415e-01
2.751944014e+00  7.7458104e-01
2.751962360e+00  7.7060449e-01
2.751980706e+00  7.6608547e-01
2.751999053e+00  7.6128229e-01
2.752017400e+00  7.5657224e-01
2.752035746e+00  7.5241076e-01
2.752054093e+00  7.4926080e-01
2.752072440e+00  7.4750626e-01
2.752090787e+00  7.4737208e-01
2.752109135e+00  7.4887471e-01
2.752127482e+00  7.5181901e-01
2.752145830e+00  7.5584263e-01
2.752164177e+00  7.6049399e-01
2.752182525e+00  7.6532005e-01
2.752200873e+00  7.6993978e-01
2.752219221e+00  7.7408752e-01
2.752237569e+00  7.7762213e-01
2.752255917e+00  7.8050888e-01
2.752274266e+00  7.8278665e-01
2.752292614e+00  7.8453309e-01
2.752310963e+00  7.8583654e-01
2.752329312e+00  7.8677867e-01
2.752347660e+00  7.8742765e-01
2.752366009e+00  7.8783907e-01
2.752384358e+00  7.8806113e-01
2.752402708e+00  7.8814056e-01
2.752421057e+00  7.8812643e-01
2.752439407e+00  7.8807009e-01
2.752457756e+00  7.8802120e-01
2.752476106e+00  7.8802082e-01
2.752494456e+00  7.8809403e-01
2.752512806e+00  7.8824581e-01
2.752531156e+00  7.8846022e-01
2.752549506e+00  7.8870466e-01
2.752567856e+00  7.8893722e-01
2.752586207e+00  7.8911438e-01
2.752604557e+00  7.8919670e-01
2.752622908e+00  7.8915095e-01
2.752641259e+00  7.8894862e-01
2.752659610e+00  7.8856229e-01
2.752677961e+00  7.8796209e-01
2.752696312e+00  7.8711504e-01
2.752714663e+00  7.8598926e-01
2.752733015e+00  7.8456410e-01
2.752751366e+00  7.8284503e-01
2.752769718e+00  7.8087967e-01
2.752788070e+00  7.7876921e-01
2.752806422e+00  7.7666871e-01
2.752824774e+00  7.7477212e-01
2.752843126e+00  7.7328222e-01
2.752861478e+00  7.7237189e-01
2.752879831e+00  7.7214727e-01
2.752898183e+00  7.7262445e-01
2.752916536e+00  7.7372712e-01
2.752934889e+00  7.7530561e-01
2.752953241e+00  7.7717029e-01
2.752971594e+00  7.7912868e-01
2.752989948e+00  7.8101558e-01
2.753008301e+00  7.8270966e-01
2.753026654e+00  7.8413588e-01
2.753045008e+00  7.8525715e-01
2.753063361e+00  7.8606094e-01
2.753081715e+00  7.8654635e-01
2.753100069e+00  7.8671523e-01
2.753118423e+00  7.8656944e-01
2.753136777e+00  7.8611424e-01
2.753155131e+00  7.8536651e-01
2.753173486e+00  7.8436475e-01
2.753191840e+00  7.8317707e-01
2.753210195e+00  7.8190251e-01
2.753228550e+00  7.8066305e-01
2.753246904e+00  7.7958604e-01
2.753265259e+00  7.7878111e-01
2.753283615e+00  7.7831883e-01
2.753301970e+00  7.7821857e-01
2.753320325e+00  7.7845018e-01
2.753338681e+00  7.7894930e-01
2.753357036e+00  7.7964002e-01
2.753375392e+00  7.8045619e-01
2.753393748e+00  7.8135365e-01
2.753412104e+00  7.8231035e-01
2.753430460e+00  7.8331650e-01
2.753448816e+00  7.8436137e-01
2.753467172e+00  7.8542321e-01
2.753485529e+00  7.8646666e-01
2.753503885e+00  7.8744773e-01
2.753522242e+00  7.8832313e-01
2.753540599e+00  7.8905931e-01
2.753558956e+00  7.8963822e-01
2.753577313e+00  7.9005747e-01
2.753595670e+00  7.9032661e-01
2.753614027e+00  7.9046101e-01
2.753632385e+00  7.9047553e-01
2.753650742e+00  7.9037928e-01
2.753669100e+00  7.9017208e-01
2.753687458e+00  7.8984238e-01
2.753705816e+00  7.8936704e-01
2.753724174e+00  7.8871279e-01
2.753742532e+00  7.8784085e-01
2.753760890e+00  7.8671549e-01
2.753779249e+00  7.8531685e-01
2.753797607e+00  7.8365652e-01
2.753815966e+00  7.8179230e-01
2.753834325e+00  7.7983614e-01
2.753852683e+00  7.7795004e-01
2.753871042e+00  7.7632645e-01
2.753889402e+00  7.7515543e-01
2.753907761e+00  7.7458601e-01
2.753926120e+00  7.7469309e-01
2.753944480e+00  7.7546028e-01
2.753962839e+00  7.7678451e-01
2.753981199e+00  7.7850060e-01
2.753999559e+00  7.8041750e-01
2.754017919e+00  7.8235501e-01
2.754036279e+00  7.8417127e-01
2.754054639e+00  7.8577555e-01
2.754073000e+00  7.8712737e-01
2.754091360e+00  7.8822570e-01
2.754109721e+00  7.8909414e-01
2.754128082e+00  7.8976669e-01
2.754146442e+00  7.9027689e-01
2.754164803e+00  7.9065087e-01
2.754183164e+00  7.9090405e-01
2.754201526e+00  7.9104072e-01
2.754219887e+00  7.9105619e-01
2.754238248e+00  7.9094133e-01
2.754256610e+00  7.9068947e-01
2.754274972e+00  7.9030472e-01
2.754293334e+00  7.8980988e-01
2.754311696e+00  7.8925084e-01
2.754330058e+00  7.8869522e-01
2.754348420e+00  7.8822325e-01
2.754366782e+00  7.8791260e-01
2.754385145e+00  7.8782102e-01
2.754403507e+00  7.8797229e-01
2.754421870e+00  7.8835035e-01
2.754440233e+00  7.8890382e-01
2.754458596e+00  7.8955920e-01
2.754476959e+00  7.9023828e-01
2.754495322e+00  7.9087402e-01
2.754513685e+00  7.9142085e-01
2.754532049e+00  7.9185753e-01
2.754550412e+00  7.9218385e-01
2.754568776e+00  7.9241376e-01
2.754587140e+00  7.9256780e-01
2.754605504e+00  7.9266718e-01
2.754623868e+00  7.9273005e-01
2.754642232e+00  7.9277009e-01
2.754660596e+00  7.9279662e-01
2.754678960e+00  7.9281546e-01
2.754697325e+00  7.9282997e-01
2.754715690e+00  7.9284195e-01
2.754734054e+00  7.9285228e-01
2.754752419e+00  7.9286133e-01
2.754770784e+00  7.9286912e-01
2.754789149e+00  7.9287537e-01
2.754807515e+00  7.9287964e-01
2.754825880e+00  7.9288125e-01
2.754844246e+00  7.9287935e-01
2.754862611e+00  7.9287310e-01
2.754880977e+00  7.9286188e-01
2.754899343e+00  7.9284562e-01
2.754917709e+00  7.9282510e-01
2.754936075e+00  7.9280212e-01
2.754954441e+00  7.9277942e-01
2.754972808e+00  7.9276028e-01
2.754991174e+00  7.9274786e-01
2.755009541e+00  7.9274445e-01
2.755027907e+00  7.9275092e-01
2.755046274e+00  7.9276619e-01
2.755064641e+00  7.9278739e-01
2.755083008e+00  7.9280992e-01
2.755101375e+00  7.9282763e-01
2.755119743e+00  7.9283247e-01
2.755138110e+00  7.9281368e-01
2.755156478e+00  7.9275652e-01
2.755174846e+00  7.9264115e-01
2.755193213e+00  7.9244255e-01
2.755211581e+00  7.9213277e-01
2.755229949e+00  7.9168615e-01
2.755248318e+00  7.9108756e-01
2.755266686e+00  7.9034219e-01
2.755285054e+00  7.8948361e-01
2.755303423e+00  7.8857639e-01
2.755321792e+00  7.8771010e-01
2.755340160e+00  7.8698434e-01
2.755358529e+00  7.8648760e-01
2.755376898e+00  7.8627656e-01
2.755395268e+00  7.8636245e-01
2.755413637e+00  7.8670957e-01
2.755432006e+00  7.8724627e-01
2.755450376e+00  7.8788413e-01
2.755468746e+00  7.8853853e-01
2.755487115e+00  7.8914412e-01
2.755505485e+00  7.8966190e-01
2.755523855e+00  7.9007818e-01
2.755542225e+00  7.9039862e-01
2.755560596e+00  7.9064085e-01
2.755578966e+00  7.9082809e-01
2.755597337e+00  7.9098453e-01
2.755615707e+00  7.9113192e-01
2.755634078e+00  7.9128683e-01
2.755652449e+00  7.9145855e-01
2.755670820e+00  7.9164819e-01
2.755689191e+00  7.9184934e-01
2.755707562e+00  7.9205048e-01
2.755725934e+00  7.9223841e-01
2.755744305e+00  7.9240157e-01
2.755762677e+00  7.9253249e-01
2.755781049e+00  7.9262859e-01
2.755799421e+00  7.9269195e-01
2.755817793e+00  7.9272773e-01
2.755836165e+00  7.9274264e-01
2.755854537e+00  7.9274340e-01
2.755872909e+00  7.9273570e-01
2.755891282e+00  7.9272363e-01
2.755909654e+00  7.9270948e-01
2.755928027e+00  7.9269387e-01
2.755946400e+00  7.9267588e-01
2.755964773e+00  7.9265322e-01
2.755983146e+00  7.9262254e-01
2.756001519e+00  7.9257975e-01
2.756019893e+00  7.9252116e-01
2.756038266e+00  7.9244433e-01
2.756056640e+00  7.9234946e-01
2.756075013e+00  7.9223997e-01
2.756093387e+00  7.9212188e-01
2.756111761e+00  7.9200161e-01
2.756130135e+00  7.9188205e-01
2.756148509e+00  7.9175803e-01
2.756166884e+00  7.9161242e-01
2.756185258e+00  7.9141460e-01
2.756203633e+00  7.9112320e-01
2.756222007e+00  7.9069376e-01
2.756240382e+00  7.9009131e-01
2.756258757e+00  7.8930533e-01
2.756277132e+00  7.8836343e-01
2.756295507e+00  7.8733811e-01
2.756313883e+00  7.8634221e-01
2.756332258e+00  7.8551120e-01
2.756350634e+00  7.8497515e-01
2.756369009e+00  7.8482788e-01
2.756387385e+00  7.8510311e-01
2.756405761e+00  7.8576563e-01
2.756424137e+00  7.8672075e-01
2.756442513e+00  7.8783836e-01
2.756460890e+00  7.8898336e-01
2.756479266e+00  7.9004265e-01
2.756497643e+00  7.9094169e-01
2.756516019e+00  7.9164822e-01
2.756534396e+00  7.9216553e-01
2.756552773e+00  7.9252001e-01
2.756571150e+00  7.9274822e-01
2.756589527e+00  7.9288680e-01
2.756607904e+00  7.9296657e-01
2.756626282e+00  7.9301036e-01
2.756644659e+00  7.9303346e-01
2.756663037e+00  7.9304521e-01
2.756681415e+00  7.9305079e-01
2.756699792e+00  7.9305272e-01
2.756718170e+00  7.9305196e-01
2.756736549e+00  7.9304857e-01
2.756754927e+00  7.9304222e-01
2.756773305e+00  7.9303235e-01
2.756791684e+00  7.9301876e-01
2.756810062e+00  7.9300164e-01
2.756828441e+00  7.9298192e-01
2.756846820e+00  7.9296129e-01
2.756865199e+00  7.9294205e-01
2.756883578e+00  7.9292676e-01
2.756901957e+00  7.9291766e-01
2.756920337e+00  7.9291619e-01
2.756938716e+00  7.9292256e-01
2.756957096e+00  7.9293576e-01
2.756975475e+00  7.9295377e-01
2.756993855e+00  7.9297405e-01
2.757012235e+00  7.9299397e-01
2.757030615e+00  7.9301153e-01
2.757048995e+00  7.9302511e-01
2.757067376e+00  7.9303338e-01
2.757085756e+00  7.9303471e-01
2.757104137e+00  7.9302600e-01
2.757122517e+00  7.9300111e-01
2.757140898e+00  7.9294877e-01
2.757159279e+00  7.9285019e-01
2.757177660e+00  7.9267709e-01
2.757196041e+00  7.9239123e-01
2.757214423e+00  7.9194722e-01
2.757232804e+00  7.9129998e-01
2.757251186e+00  7.9041748e-01
2.757269567e+00  7.8929686e-01
2.757287949e+00  7.8797983e-01
2.757306331e+00  7.8656083e-01
2.757324713e+00  7.8518204e-01
2.757343095e+00  7.8401264e-01
2.757361478e+00  7.8321508e-01
2.757379860e+00  7.8290760e-01
2.757398243e+00  7.8313471e-01
2.757416625e+00  7.8385610e-01
2.757435008e+00  7.8495776e-01
2.757453391e+00  7.8628130e-01
2.757471774e+00  7.8766116e-01
2.757490157e+00  7.8895768e-01
2.757508540e+00  7.9007726e-01
2.757526924e+00  7.9097702e-01
2.757545307e+00  7.9165656e-01
2.757563691e+00  7.9214317e-01
2.757582075e+00  7.9247651e-01
2.757600458e+00  7.9269697e-01
2.757618842e+00  7.9283899e-01
2.757637227e+00  7.9292879e-01
2.757655611e+00  7.9298478e-01
2.757673995e+00  7.9301931e-01
2.757692380e+00  7.9304034e-01
2.757710764e+00  7.9305300e-01
2.757729149e+00  7.9306054e-01
2.757747534e+00  7.9306501e-01
2.757765919e+00  7.9306771e-01
2.757784304e+00  7.9306930e-01
2.757802689e+00  7.9307029e-01
2.757821075e+00  7.9307093e-01
2.757839460e+00  7.9307132e-01
2.757857846e+00  7.9307155e-01
2.757876231e+00  7.9307163e-01
2.757894617e+00  7.9307158e-01
2.757913003e+00  7.9307140e-01
2.757931389e+00  7.9307110e-01
2.757949775e+00  7.9307067e-01
2.757968162e+00  7.9307011e-01
2.757986548e+00  7.9306939e-01
2.758004935e+00  7.9306850e-01
2.758023322e+00  7.9306739e-01
2.758041708e+00  7.9306586e-01
2.758060095e+00  7.9306382e-01
2.758078482e+00  7.9306076e-01
2.758096870e+00  7.9305567e-01
2.758115257e+00  7.9304643e-01
2.758133644e+00  7.9302886e-01
2.758152032e+00  7.9299505e-01
2.758170420e+00  7.9293116e-01
2.758188807e+00  7.9281468e-01
2.758207195e+00  7.9261206e-01
2.758225583e+00  7.9227807e-01
2.758243972e+00  7.9175884e-01
2.758262360e+00  7.9100048e-01
2.758280748e+00  7.8996390e-01
2.758299137e+00  7.8864397e-01
2.758317525e+00  7.8708800e-01
2.758335914e+00  7.8540613e-01
2.758354303e+00  7.8376636e-01
2.758372692e+00  7.8237067e-01
2.758391081e+00  7.8141535e-01
2.758409471e+00  7.8104595e-01
2.758427860e+00  7.8132081e-01
2.758446249e+00  7.8219593e-01
2.758464639e+00  7.8353649e-01
2.758483029e+00  7.8515092e-01
2.758501419e+00  7.8683555e-01
2.758519809e+00  7.8841564e-01
2.758538199e+00  7.8977175e-01
2.758556589e+00  7.9084722e-01
2.758574980e+00  7.9163952e-01
2.758593370e+00  7.9218254e-01
2.758611761e+00  7.9252729e-01
2.758630151e+00  7.9272662e-01
2.758648542e+00  7.9282611e-01
2.758666933e+00  7.9286086e-01
2.758685324e+00  7.9285618e-01
2.758703716e+00  7.9283008e-01
2.758722107e+00  7.9279581e-01
2.758740498e+00  7.9276356e-01
2.758758890e+00  7.9274105e-01
2.758777282e+00  7.9273334e-01
2.758795674e+00  7.9274259e-01
2.758814066e+00  7.9276766e-01
2.758832458e+00  7.9280506e-01
2.758850850e+00  7.9284961e-01
2.758869242e+00  7.9289581e-01
2.758887635e+00  7.9293893e-01
2.758906027e+00  7.9297578e-01
2.758924420e+00  7.9300487e-01
2.758942813e+00  7.9302620e-01
2.758961206e+00  7.9304072e-01
2.758979599e+00  7.9304988e-01
2.758997992e+00  7.9305515e-01
2.759016385e+00  7.9305777e-01
2.759034779e+00  7.9305869e-01
2.759053172e+00  7.9305851e-01
2.759071566e+00  7.9305760e-01
2.759089960e+00  7.9305595e-01
2.759108354e+00  7.9305358e-01
2.759126748e+00  7.9305001e-01
2.759145142e+00  7.9304415e-01
2.759163536e+00  7.9303372e-01
2.759181931e+00  7.9301413e-01
2.759200325e+00  7.9297672e-01
2.759218720e+00  7.9290625e-01
2.759237115e+00  7.9277786e-01
2.759255510e+00  7.9255429e-01
2.759273905e+00  7.9218500e-01
2.759292300e+00  7.9160923e-01
2.759310695e+00  7.9076537e-01
2.759329091e+00  7.8960720e-01
2.759347486e+00  7.8812545e-01
2.759365882e+00  7.8636897e-01
2.759384278e+00  7.8445749e-01
2.759402673e+00  7.8257743e-01
2.759421069e+00  7.8095649e-01
2.759439466e+00  7.7981987e-01
2.759457862e+00  7.7933917e-01
2.759476258e+00  7.7958982e-01
2.759494655e+00  7.8053164e-01
2.759513051e+00  7.8201940e-01
2.759531448e+00  7.8383952e-01
2.759549845e+00  7.8576025e-01
2.759568242e+00  7.8757906e-01
2.759586639e+00  7.8915426e-01
2.759605036e+00  7.9041557e-01
2.759623434e+00  7.9135582e-01
2.759641831e+00  7.9201163e-01
2.759660229e+00  7.9244135e-01
2.759678627e+00  7.9270693e-01
2.759697024e+00  7.9286245e-01
2.759715422e+00  7.9294929e-01
2.759733821e+00  7.9299597e-01
2.759752219e+00  7.9302049e-01
2.759770617e+00  7.9303332e-01
2.759789016e+00  7.9304015e-01
2.759807414e+00  7.9304380e-01
2.759825813e+00  7.9304548e-01
2.759844212e+00  7.9304554e-01
2.759862611e+00  7.9304356e-01
2.759881010e+00  7.9303885e-01
2.759899409e+00  7.9303028e-01
2.759917808e+00  7.9301646e-01
2.759936208e+00  7.9299599e-01
2.759954607e+00  7.9296794e-01
2.759973007e+00  7.9293230e-01
2.759991407e+00  7.9289049e-01
2.760009807e+00  7.9284559e-01
2.760028207e+00  7.9280218e-01
2.760046607e+00  7.9276564e-01
2.760065007e+00  7.9274109e-01
2.760083408e+00  7.9273216e-01
2.760101808e+00  7.9274010e-01
2.760120209e+00  7.9276344e-01
2.760138610e+00  7.9279833e-01
2.760157011e+00  7.9283937e-01
2.760175412e+00  7.9288103e-01
2.760193813e+00  7.9291825e-01
2.760212214e+00  7.9294687e-01
2.760230616e+00  7.9296317e-01
2.760249017e+00  7.9296238e-01
2.760267419e+00  7.9293639e-01
2.760285821e+00  7.9287052e-01
2.760304223e+00  7.9273982e-01
2.760322625e+00  7.9250585e-01
2.760341027e+00  7.9211538e-01
2.760359429e+00  7.9150353e-01
2.760377831e+00  7.9060340e-01
2.760396234e+00  7.8936346e-01
2.760414637e+00  7.8777058e-01
2.760433039e+00  7.8587340e-01
2.760451442e+00  7.8379691e-01
2.760469845e+00  7.8173942e-01
2.760488248e+00  7.7994648e-01
2.760506652e+00  7.7866461e-01
2.760525055e+00  7.7808592e-01
2.760543458e+00  7.7830085e-01
2.760561862e+00  7.7927494e-01
2.760580266e+00  7.8085786e-01
2.760598670e+00  7.8282150e-01
2.760617074e+00  7.8491375e-01
2.760635478e+00  7.8691064e-01
2.760653882e+00  7.8865228e-01
2.760672286e+00  7.9005610e-01
2.760690691e+00  7.9110930e-01
2.760709095e+00  7.9184853e-01
2.760727500e+00  7.9233597e-01
2.760745905e+00  7.9263913e-01
2.760764310e+00  7.9281781e-01
2.760782715e+00  7.9291824e-01
2.760801120e+00  7.9297259e-01
2.760819526e+00  7.9300136e-01
2.760837931e+00  7.9301661e-01
2.760856337e+00  7.9302496e-01
2.760874742e+00  7.9302985e-01
2.760893148e+00  7.9303296e-01
2.760911554e+00  7.9303516e-01
2.760929960e+00  7.9303670e-01
2.760948367e+00  7.9303783e-01
2.760966773e+00  7.9303869e-01
2.760985179e+00  7.9303931e-01
2.761003586e+00  7.9303972e-01
2.761021993e+00  7.9303996e-01
2.761040399e+00  7.9304003e-01
2.761058806e+00  7.9303993e-01
2.761077213e+00  7.9303967e-01
2.761095621e+00  7.9303921e-01
2.761114028e+00  7.9303848e-01
2.761132435e+00  7.9303737e-01
2.761150843e+00  7.9303564e-01
2.761169250e+00  7.9303293e-01
2.761187658e+00  7.9302861e-01
2.761206066e+00  7.9302180e-01
2.761224474e+00  7.9301131e-01
2.761242882e+00  7.9299558e-01
2.761261291e+00  7.9297318e-01
2.761279699e+00  7.9294267e-01
2.761298108e+00  7.9290281e-01
2.761316516e+00  7.9285241e-01
2.761334925e+00  7.9278924e-01
2.761353334e+00  7.9270790e-01
2.761371743e+00  7.9259643e-01
2.761390152e+00  7.9243183e-01
2.761408561e+00  7.9217591e-01
2.761426971e+00  7.9177325e-01
2.761445380e+00  7.9115424e-01
2.761463790e+00  7.9024560e-01
2.761482200e+00  7.8898922e-01
2.761500610e+00  7.8736736e-01
2.761519020e+00  7.8542767e-01
2.761537430e+00  7.8329871e-01
2.761555840e+00  7.8118654e-01
2.761574250e+00  7.7934700e-01
2.761592661e+00  7.7803686e-01
2.761611071e+00  7.7745578e-01
2.761629482e+00  7.7769712e-01
2.761647893e+00  7.7872409e-01
2.761666304e+00  7.8037955e-01
2.761684715e+00  7.8242609e-01
2.761703126e+00  7.8460204e-01
2.761721538e+00  7.8667558e-01
2.761739949e+00  7.8848184e-01
2.761758361e+00  7.8993626e-01
2.761776773e+00  7.9102654e-01
2.761795184e+00  7.9179133e-01
2.761813596e+00  7.9229546e-01
