# Wave/freq Total
2.750000000e+00  7.8522223e-01
2.750018333e+00  7.8556085e-01
2.750036667e+00  7.8595915e-01
2.750055000e+00  7.8640642e-01
2.750073334e+00  7.8688656e-01
2.750091668e+00  7.8737991e-01
2.750110002e+00  7.8786573e-01
2.750128336e+00  7.8832420e-01
2.750146670e+00  7.8873809e-01
2.750165004e+00  7.8909358e-01
2.750183339e+00  7.8938034e-01
2.750201673e+00  7.8959127e-01
2.750220008e+00  7.8972223e-01
2.750238343e+00  7.8977177e-01
2.750256678e+00  7.8974096e-01
2.750275013e+00  7.8963310e-01
2.750293348e+00  7.8945339e-01
2.750311683e+00  7.8920883e-01
2.750330019e+00  7.8890893e-01
2.750348354e+00  7.8856757e-01
2.750366690e+00  7.8820548e-01
2.750385026e+00  7.8785232e-01
2.750403362e+00  7.8754622e-01
2.750421698e+00  7.8732957e-01
2.750440034e+00  7.8724095e-01
2.750458370e+00  7.8730534e-01
2.750476706e+00  7.8752592e-01
2.750495043e+00  7.8788099e-01
2.750513380e+00  7.8832773e-01
2.750531716e+00  7.8881196e-01
2.750550053e+00  7.8928078e-01
2.750568390e+00  7.8969402e-01
2.750586727e+00  7.9003121e-01
2.750605065e+00  7.9029233e-01
2.750623402e+00  7.9049329e-01
2.750641739e+00  7.9065797e-01
2.750660077e+00  7.9080986e-01
2.750678415e+00  7.9096561e-01
2.750696753e+00  7.9113189e-01
2.750715091e+00  7.9130586e-01
2.750733429e+00  7.9147822e-01
2.750751767e+00  7.9163746e-01
2.750770105e+00  7.9177383e-01
2.750788444e+00  7.9188187e-01
2.750806782e+00  7.9196122e-01
2.750825121e+00  7.9201587e-01
2.750843460e+00  7.9205246e-01
2.750861799e+00  7.9207820e-01
2.750880138e+00  7.9209940e-01
2.750898477e+00  7.9212026e-01
2.750916816e+00  7.9214265e-01
2.750935156e+00  7.9216647e-01
2.750953495e+00  7.9219028e-01
2.750971835e+00  7.9221219e-01
2.750990175e+00  7.9223045e-01
2.751008515e+00  7.9224395e-01
2.751026855e+00  7.9225224e-01
2.751045195e+00  7.9225549e-01
2.751063535e+00  7.9225421e-01
2.751081876e+00  7.9224909e-01
2.751100216e+00  7.9224075e-01
2.751118557e+00  7.9222971e-01
2.751136898e+00  7.9221630e-01
2.751155239e+00  7.9220068e-01
2.751173580e+00  7.9218289e-01
2.751191921e+00  7.9216284e-01
2.751210262e+00  7.9214033e-01
2.751228604e+00  7.9211500e-01
2.751246945e+00  7.9208621e-01
2.751265287e+00  7.9205292e-01
2.751283629e+00  7.9201336e-01
2.751301970e+00  7.9196474e-01
2.751320312e+00  7.9190274e-01
2.751338655e+00  7.9182119e-01
2.751356997e+00  7.9171202e-01
2.751375339e+00  7.9156571e-01
2.751393682e+00  7.9137276e-01
2.751412024e+00  7.9112590e-01
2.751430367e+00  7.9082313e-01
2.751448710e+00  7.9047068e-01
2.751467053e+00  7.9008461e-01
2.751485396e+00  7.8969019e-01
2.751503739e+00  7.8931812e-01
2.751522083e+00  7.8899796e-01
2.751540426e+00  7.8875013e-01
2.751558770e+00  7.8857897e-01
2.751577113e+00  7.8846901e-01
2.751595457e+00  7.8838620e-01
2.751613801e+00  7.8828426e-01
2.751632145e+00  7.8811451e-01
2.751650490e+00  7.8783676e-01
2.751668834e+00  7.8742822e-01
2.751687178e+00  7.8688836e-01
2.751705523e+00  7.8623791e-01
2.751723868e+00  7.8551272e-01
2.751742213e+00  7.8475399e-01
2.751760557e+00  7.8399520e-01
2.751778903e+00  7.8325034e-01
2.751797248e+00  7.8250365e-01
2.751815593e+00  7.8170270e-01
2.751833938e+00  7.8075534e-01
2.751852284e+00  7.7953063e-01
2.751870630e+00  7.7786447e-01
2.751888976e+00  7.7557157e-01
2.751907321e+00  7.7246618e-01
2.751925667e+00  7.6839410e-01
2.751944014e+00  7.6327569e-01
2.751962360e+00  7.5715480e-01
2.751980706e+00  7.5024239e-01
2.751999053e+00  7.4293848e-01
2.752017400e+00  7.3581607e-01
2.752035746e+00  7.2955791e-01
2.752054093e+00  7.2485070e-01
2.752072440e+00  7.2225797e-01
2.752090787e+00  7.2210441e-01
2.752109135e+00  7.2440593e-01
2.752127482e+00  7.2886755e-01
2.752145830e+00  7.3494997e-01
2.752164177e+00  7.4198404e-01
2.752182525e+00  7.4929876e-01
2.752200873e+00  7.5632818e-01
2.752219221e+00  7.6267467e-01
2.752237569e+00  7.6812289e-01
2.752255917e+00  7.7261448e-01
2.752274266e+00  7.7620129e-01
2.752292614e+00  7.7899526e-01
2.752310963e+00  7.8112747e-01
2.752329312e+00  7.8272203e-01
2.752347660e+00  7.8388442e-01
2.752366009e+00  7.8470070e-01
2.752384358e+00  7.8524283e-01
2.752402708e+00  7.8557546e-01
2.752421057e+00  7.8576099e-01
2.752439407e+00  7.8586044e-01
2.752457756e+00  7.8593048e-01
2.752476106e+00  7.8601705e-01
2.752494456e+00  7.8614831e-01
2.752512806e+00  7.8633104e-01
2.752531156e+00  7.8654968e-01
2.752549506e+00  7.8677066e-01
2.752567856e+00  7.8694958e-01
2.752586207e+00  7.8703857e-01
2.752604557e+00  7.8699152e-01
2.752622908e+00  7.8676560e-01
2.752641259e+00  7.8631902e-01
2.752659610e+00  7.8560695e-01
2.752677961e+00  7.8457822e-01
2.752696312e+00  7.8317624e-01
2.752714663e+00  7.8134708e-01
2.752733015e+00  7.7905589e-01
2.752751366e+00  7.7631021e-01
2.752769718e+00  7.7318456e-01
2.752788070e+00  7.6983765e-01
2.752806422e+00  7.6651244e-01
2.752824774e+00  7.6351235e-01
2.752843126e+00  7.6115442e-01
2.752861478e+00  7.5970888e-01
2.752879831e+00  7.5934199e-01
2.752898183e+00  7.6007974e-01
2.752916536e+00  7.6180404e-01
2.752934889e+00  7.6428219e-01
2.752953241e+00  7.6721842e-01
2.752971594e+00  7.7031150e-01
2.752989948e+00  7.7330143e-01
2.753008301e+00  7.7599554e-01
2.753026654e+00  7.7827251e-01
2.753045008e+00  7.8007001e-01
2.753063361e+00  7.8136425e-01
2.753081715e+00  7.8215029e-01
2.753100069e+00  7.8242845e-01
2.753118423e+00  7.8220033e-01
2.753136777e+00  7.8147426e-01
2.753155131e+00  7.8027839e-01
2.753173486e+00  7.7867663e-01
2.753191840e+00  7.7678141e-01
2.753210195e+00  7.7475599e-01
2.753228550e+00  7.7280181e-01
2.753246904e+00  7.7113048e-01
2.753265259e+00  7.6992642e-01
2.753283615e+00  7.6931143e-01
2.753301970e+00  7.6932299e-01
2.753320325e+00  7.6991384e-01
2.753338681e+00  7.7097338e-01
2.753357036e+00  7.7236215e-01
2.753375392e+00  7.7394663e-01
2.753393748e+00  7.7562282e-01
2.753412104e+00  7.7732290e-01
2.753430460e+00  7.7900718e-01
2.753448816e+00  7.8064882e-01
2.753467172e+00  7.8222025e-01
2.753485529e+00  7.8368695e-01
2.753503885e+00  7.8500966e-01
2.753522242e+00  7.8615189e-01
2.753540599e+00  7.8708776e-01
2.753558956e+00  7.8780692e-01
2.753577313e+00  7.8831388e-01
2.753595670e+00  7.8862360e-01
2.753614027e+00  7.8875466e-01
2.753632385e+00  7.8872235e-01
2.753650742e+00  7.8853278e-01
2.753669100e+00  7.8817863e-01
2.753687458e+00  7.8763647e-01
2.753705816e+00  7.8686625e-01
2.753724174e+00  7.8581337e-01
2.753742532e+00  7.8441558e-01
2.753760890e+00  7.8261625e-01
2.753779249e+00  7.8038430e-01
2.753797607e+00  7.7773863e-01
2.753815966e+00  7.7477111e-01
2.753834325e+00  7.7165896e-01
2.753852683e+00  7.6865816e-01
2.753871042e+00  7.6607258e-01
2.753889402e+00  7.6420239e-01
2.753907761e+00  7.6328352e-01
2.753926120e+00  7.6343553e-01
2.753944480e+00  7.6463453e-01
2.753962839e+00  7.6672010e-01
2.753981199e+00  7.6943344e-01
2.753999559e+00  7.7247406e-01
2.754017919e+00  7.7555731e-01
2.754036279e+00  7.7845776e-01
2.754054639e+00  7.8102990e-01
2.754073000e+00  7.8320716e-01
2.754091360e+00  7.8498560e-01
2.754109721e+00  7.8640115e-01
2.754128082e+00  7.8750772e-01
2.754146442e+00  7.8836045e-01
2.754164803e+00  7.8900536e-01
2.754183164e+00  7.8947443e-01
2.754201526e+00  7.8978496e-01
2.754219887e+00  7.8994211e-01
2.754238248e+00  7.8994409e-01
2.754256610e+00  7.8978971e-01
2.754274972e+00  7.8948715e-01
2.754293334e+00  7.8906232e-01
2.754311696e+00  7.8856338e-01
2.754330058e+00  7.8805976e-01
2.754348420e+00  7.8763308e-01
2.754366782e+00  7.8736209e-01
2.754385145e+00  7.8730541e-01
2.754403507e+00  7.8748751e-01
2.754421870e+00  7.8789294e-01
2.754440233e+00  7.8847083e-01
2.754458596e+00  7.8914812e-01
2.754476959e+00  7.8984697e-01
2.754495322e+00  7.9050067e-01
2.754513685e+00  7.9106388e-01
2.754532049e+00  7.9151559e-01
2.754550412e+00  7.9185575e-01
2.754568776e+00  7.9209842e-01
2.754587140e+00  7.9226428e-01
2.754605504e+00  7.9237461e-01
2.754623868e+00  7.9244763e-01
2.754642232e+00  7.9249711e-01
2.754660596e+00  7.9253243e-01
2.754678960e+00  7.9255946e-01
2.754697325e+00  7.9258161e-01
2.754715690e+00  7.9260074e-01
2.754734054e+00  7.9261776e-01
2.754752419e+00  7.9263308e-01
2.754770784e+00  7.9264675e-01
2.754789149e+00  7.9265851e-01
2.754807515e+00  7.9266798e-01
2.754825880e+00  7.9267447e-01
2.754844246e+00  7.9267716e-01
2.754862611e+00  7.9267524e-01
2.754880977e+00  7.9266808e-01
2.754899343e+00  7.9265565e-01
2.754917709e+00  7.9263873e-01
2.754936075e+00  7.9261912e-01
2.754954441e+00  7.9259956e-01
2.754972808e+00  7.9258331e-01
2.754991174e+00  7.9257353e-01
2.755009541e+00  7.9257247e-01
2.755027907e+00  7.9258096e-01
2.755046274e+00  7.9259788e-01
2.755064641e+00  7.9262026e-01
2.755083008e+00  7.9264346e-01
2.755101375e+00  7.9266126e-01
2.755119743e+00  7.9266558e-01
2.755138110e+00  7.9264565e-01
2.755156478e+00  7.9258676e-01
2.755174846e+00  7.9246908e-01
2.755193213e+00  7.9226756e-01
2.755211581e+00  7.9195404e-01
2.755229949e+00  7.9150241e-01
2.755248318e+00  7.9089672e-01
2.755266686e+00  7.9014078e-01
2.755285054e+00  7.8926616e-01
2.755303423e+00  7.8833468e-01
2.755321792e+00  7.8743253e-01
2.755340160e+00  7.8665549e-01
2.755358529e+00  7.8608852e-01
2.755376898e+00  7.8578594e-01
2.755395268e+00  7.8575891e-01
2.755413637e+00  7.8597496e-01
2.755432006e+00  7.8636928e-01
2.755450376e+00  7.8686328e-01
2.755468746e+00  7.8738351e-01
2.755487115e+00  7.8787487e-01
2.755505485e+00  7.8830557e-01
2.755523855e+00  7.8866494e-01
2.755542225e+00  7.8895780e-01
2.755560596e+00  7.8919864e-01
2.755578966e+00  7.8940737e-01
2.755597337e+00  7.8960620e-01
2.755615707e+00  7.8981649e-01
2.755634078e+00  7.9005503e-01
2.755652449e+00  7.9033017e-01
2.755670820e+00  7.9063941e-01
2.755689191e+00  7.9096971e-01
2.755707562e+00  7.9130073e-01
2.755725934e+00  7.9160996e-01
2.755744305e+00  7.9187802e-01
2.755762677e+00  7.9209244e-01
2.755781049e+00  7.9224906e-01
2.755799421e+00  7.9235141e-01
2.755817793e+00  7.9240827e-01
2.755836165e+00  7.9243092e-01
2.755854537e+00  7.9243067e-01
2.755872909e+00  7.9241701e-01
2.755891282e+00  7.9239669e-01
2.755909654e+00  7.9237340e-01
2.755928027e+00  7.9234800e-01
2.755946400e+00  7.9231875e-01
2.755964773e+00  7.9228174e-01
2.755983146e+00  7.9223135e-01
2.756001519e+00  7.9216105e-01
2.756019893e+00  7.9206508e-01
2.756038266e+00  7.9194022e-01
2.756056640e+00  7.9178815e-01
2.756075013e+00  7.9161662e-01
2.756093387e+00  7.9143873e-01
2.756111761e+00  7.9126968e-01
2.756130135e+00  7.9112103e-01
2.756148509e+00  7.9099396e-01
2.756166884e+00  7.9087368e-01
2.756185258e+00  7.9072722e-01
2.756203633e+00  7.9050673e-01
2.756222007e+00  7.9015886e-01
2.756240382e+00  7.8963938e-01
2.756258757e+00  7.8893020e-01
2.756277132e+00  7.8805405e-01
2.756295507e+00  7.8708157e-01
2.756313883e+00  7.8612618e-01
2.756332258e+00  7.8532543e-01
2.756350634e+00  7.8481196e-01
2.756369009e+00  7.8468195e-01
2.756387385e+00  7.8497087e-01
2.756405761e+00  7.8564463e-01
2.756424137e+00  7.8660912e-01
2.756442513e+00  7.8773450e-01
2.756460890e+00  7.8888585e-01
2.756479266e+00  7.8995020e-01
2.756497643e+00  7.9085319e-01
2.756516019e+00  7.9156277e-01
2.756534396e+00  7.9208243e-01
2.756552773e+00  7.9243874e-01
2.756571150e+00  7.9266844e-01
2.756589527e+00  7.9280825e-01
2.756607904e+00  7.9288904e-01
2.756626282e+00  7.9293369e-01
2.756644659e+00  7.9295746e-01
2.756663037e+00  7.9296960e-01
2.756681415e+00  7.9297514e-01
2.756699792e+00  7.9297637e-01
2.756718170e+00  7.9297390e-01
2.756736549e+00  7.9296734e-01
2.756754927e+00  7.9295584e-01
2.756773305e+00  7.9293840e-01
2.756791684e+00  7.9291455e-01
2.756810062e+00  7.9288465e-01
2.756828441e+00  7.9285028e-01
2.756846820e+00  7.9281437e-01
2.756865199e+00  7.9278095e-01
2.756883578e+00  7.9275449e-01
2.756901957e+00  7.9273890e-01
2.756920337e+00  7.9273668e-01
2.756938716e+00  7.9274825e-01
2.756957096e+00  7.9277183e-01
2.756975475e+00  7.9280389e-01
2.756993855e+00  7.9284006e-01
2.757012235e+00  7.9287587e-01
2.757030615e+00  7.9290787e-01
2.757048995e+00  7.9293355e-01
2.757067376e+00  7.9295128e-01
2.757085756e+00  7.9295954e-01
2.757104137e+00  7.9295564e-01
2.757122517e+00  7.9293394e-01
2.757140898e+00  7.9288366e-01
2.757159279e+00  7.9278642e-01
2.757177660e+00  7.9261421e-01
2.757196041e+00  7.9232899e-01
2.757214423e+00  7.9188548e-01
2.757232804e+00  7.9123869e-01
2.757251186e+00  7.9035660e-01
2.757269567e+00  7.8923639e-01
2.757287949e+00  7.8791977e-01
2.757306331e+00  7.8650116e-01
2.757324713e+00  7.8512276e-01
2.757343095e+00  7.8395371e-01
2.757361478e+00  7.8315647e-01
2.757379860e+00  7.8284925e-01
2.757398243e+00  7.8307658e-01
2.757416625e+00  7.8379814e-01
2.757435008e+00  7.8489993e-01
2.757453391e+00  7.8622358e-01
2.757471774e+00  7.8760354e-01
2.757490157e+00  7.8890016e-01
2.757508540e+00  7.9001986e-01
2.757526924e+00  7.9091975e-01
2.757545307e+00  7.9159945e-01
2.757563691e+00  7.9208622e-01
2.757582075e+00  7.9241974e-01
2.757600458e+00  7.9264039e-01
2.757618842e+00  7.9278260e-01
2.757637227e+00  7.9287259e-01
2.757655611e+00  7.9292879e-01
2.757673995e+00  7.9296351e-01
2.757692380e+00  7.9298474e-01
2.757710764e+00  7.9299759e-01
2.757729149e+00  7.9300532e-01
2.757747534e+00  7.9300997e-01
2.757765919e+00  7.9301285e-01
2.757784304e+00  7.9301460e-01
2.757802689e+00  7.9301576e-01
2.757821075e+00  7.9301656e-01
2.757839460e+00  7.9301712e-01
2.757857846e+00  7.9301751e-01
2.757876231e+00  7.9301776e-01
2.757894617e+00  7.9301787e-01
2.757913003e+00  7.9301786e-01
2.757931389e+00  7.9301769e-01
2.757949775e+00  7.9301735e-01
2.757968162e+00  7.9301679e-01
2.757986548e+00  7.9301595e-01
2.758004935e+00  7.9301473e-01
2.758023322e+00  7.9301303e-01
2.758041708e+00  7.9301058e-01
2.758060095e+00  7.9300723e-01
2.758078482e+00  7.9300250e-01
2.758096870e+00  7.9299547e-01
2.758115257e+00  7.9298419e-01
2.758133644e+00  7.9296469e-01
2.758152032e+00  7.9292936e-01
2.758170420e+00  7.9286458e-01
2.758188807e+00  7.9274801e-01
2.758207195e+00  7.9254614e-01
2.758225583e+00  7.9221364e-01
2.758243972e+00  7.9169644e-01
2.758262360e+00  7.9094040e-01
2.758280748e+00  7.8990617e-01
2.758299137e+00  7.8858842e-01
2.758317525e+00  7.8703433e-01
2.758335914e+00  7.8535397e-01
2.758354303e+00  7.8371537e-01
2.758372692e+00  7.8232052e-01
2.758391081e+00  7.8136579e-01
2.758409471e+00  7.8099678e-01
2.758427860e+00  7.8127188e-01
2.758446249e+00  7.8214712e-01
2.758464639e+00  7.8348774e-01
2.758483029e+00  7.8510218e-01
2.758501419e+00  7.8678679e-01
2.758519809e+00  7.8836686e-01
2.758538199e+00  7.8972297e-01
2.758556589e+00  7.9079845e-01
2.758574980e+00  7.9159078e-01
2.758593370e+00  7.9213385e-01
2.758611761e+00  7.9247868e-01
2.758630151e+00  7.9267809e-01
2.758648542e+00  7.9277768e-01
2.758666933e+00  7.9281253e-01
2.758685324e+00  7.9280794e-01
2.758703716e+00  7.9278193e-01
2.758722107e+00  7.9274774e-01
2.758740498e+00  7.9271556e-01
2.758758890e+00  7.9269311e-01
2.758777282e+00  7.9268546e-01
2.758795674e+00  7.9269476e-01
2.758814066e+00  7.9271988e-01
2.758832458e+00  7.9275734e-01
2.758850850e+00  7.9280196e-01
2.758869242e+00  7.9284824e-01
2.758887635e+00  7.9289145e-01
2.758906027e+00  7.9292839e-01
2.758924420e+00  7.9295759e-01
2.758942813e+00  7.9297902e-01
2.758961206e+00  7.9299365e-01
2.758979599e+00  7.9300291e-01
2.758997992e+00  7.9300827e-01
2.759016385e+00  7.9301099e-01
2.759034779e+00  7.9301200e-01
2.759053172e+00  7.9301190e-01
2.759071566e+00  7.9301106e-01
2.759089960e+00  7.9300949e-01
2.759108354e+00  7.9300719e-01
2.759126748e+00  7.9300368e-01
2.759145142e+00  7.9299788e-01
2.759163536e+00  7.9298751e-01
2.759181931e+00  7.9296797e-01
2.759200325e+00  7.9293061e-01
2.759218720e+00  7.9286019e-01
2.759237115e+00  7.9273184e-01
2.759255510e+00  7.9250833e-01
2.759273905e+00  7.9213909e-01
2.759292300e+00  7.9156340e-01
2.759310695e+00  7.9071961e-01
2.759329091e+00  7.8956154e-01
2.759347486e+00  7.8807991e-01
2.759365882e+00  7.8632358e-01
2.759384278e+00  7.8441226e-01
2.759402673e+00  7.8253236e-01
2.759421069e+00  7.8091158e-01
2.759439466e+00  7.7977510e-01
2.759457862e+00  7.7929451e-01
2.759476258e+00  7.7954522e-01
2.759494655e+00  7.8048707e-01
2.759513051e+00  7.8197481e-01
2.759531448e+00  7.8379490e-01
2.759549845e+00  7.8571560e-01
2.759568242e+00  7.8753436e-01
2.759586639e+00  7.8910953e-01
2.759605036e+00  7.9037082e-01
2.759623434e+00  7.9131108e-01
2.759641831e+00  7.9196690e-01
2.759660229e+00  7.9239665e-01
2.759678627e+00  7.9266227e-01
2.759697024e+00  7.9281785e-01
2.759715422e+00  7.9290475e-01
2.759733821e+00  7.9295149e-01
2.759752219e+00  7.9297606e-01
2.759770617e+00  7.9298894e-01
2.759789016e+00  7.9299581e-01
2.759807414e+00  7.9299950e-01
2.759825813e+00  7.9300123e-01
2.759844212e+00  7.9300133e-01
2.759862611e+00  7.9299940e-01
2.759881010e+00  7.9299474e-01
2.759899409e+00  7.9298623e-01
2.759917808e+00  7.9297246e-01
2.759936208e+00  7.9295206e-01
2.759954607e+00  7.9292407e-01
2.759973007e+00  7.9288848e-01
2.759991407e+00  7.9284673e-01
2.760009807e+00  7.9280190e-01
2.760028207e+00  7.9275856e-01
2.760046607e+00  7.9272209e-01
2.760065007e+00  7.9269761e-01
2.760083408e+00  7.9268875e-01
2.760101808e+00  7.9269676e-01
2.760120209e+00  7.9272015e-01
2.760138610e+00  7.9275510e-01
2.760157011e+00  7.9279619e-01
2.760175412e+00  7.9283789e-01
2.760193813e+00  7.9287515e-01
2.760212214e+00  7.9290381e-01
2.760230616e+00  7.9292014e-01
2.760249017e+00  7.9291938e-01
2.760267419e+00  7.9289343e-01
2.760285821e+00  7.9282760e-01
2.760304223e+00  7.9269695e-01
2.760322625e+00  7.9246304e-01
2.760341027e+00  7.9207264e-01
2.760359429e+00  7.9146087e-01
2.760377831e+00  7.9056085e-01
2.760396234e+00  7.8932101e-01
2.760414637e+00  7.8772825e-01
2.760433039e+00  7.8583120e-01
2.760451442e+00  7.8375485e-01
2.760469845e+00  7.8169749e-01
2.760488248e+00  7.7990468e-01
2.760506652e+00  7.7862291e-01
2.760525055e+00  7.7804428e-01
2.760543458e+00  7.7825925e-01
2.760561862e+00  7.7923333e-01
2.760580266e+00  7.8081622e-01
2.760598670e+00  7.8277979e-01
2.760617074e+00  7.8487197e-01
2.760635478e+00  7.8686879e-01
2.760653882e+00  7.8861036e-01
2.760672286e+00  7.9001412e-01
2.760690691e+00  7.9106728e-01
2.760709095e+00  7.9180649e-01
2.760727500e+00  7.9229393e-01
2.760745905e+00  7.9259710e-01
2.760764310e+00  7.9277580e-01
2.760782715e+00  7.9287627e-01
2.760801120e+00  7.9293068e-01
2.760819526e+00  7.9295951e-01
2.760837931e+00  7.9297481e-01
2.760856337e+00  7.9298323e-01
2.760874742e+00  7.9298818e-01
2.760893148e+00  7.9299136e-01
2.760911554e+00  7.9299362e-01
2.760929960e+00  7.9299521e-01
2.760948367e+00  7.9299640e-01
2.760966773e+00  7.9299730e-01
2.760985179e+00  7.9299796e-01
2.761003586e+00  7.9299840e-01
2.761021993e+00  7.9299865e-01
2.761040399e+00  7.9299872e-01
2.761058806e+00  7.9299862e-01
2.761077213e+00  7.9299834e-01
2.761095621e+00  7.9299785e-01
2.761114028e+00  7.9299711e-01
2.761132435e+00  7.9299598e-01
2.761150843e+00  7.9299425e-01
2.761169250e+00  7.9299154e-01
2.761187658e+00  7.9298723e-01
2.761206066e+00  7.9298044e-01
2.761224474e+00  7.9296998e-01
2.761242882e+00  7.9295428e-01
2.761261291e+00  7.9293192e-01
2.761279699e+00  7.9290143e-01
2.761298108e+00  7.9286162e-01
2.761316516e+00  7.9281125e-01
2.761334925e+00  7.9274812e-01
2.761353334e+00  7.9266683e-01
2.761371743e+00  7.9255540e-01
2.761390152e+00  7.9239084e-01
2.761408561e+00  7.9213496e-01
2.761426971e+00  7.9173235e-01
2.761445380e+00  7.9111340e-01
2.761463790e+00  7.9020482e-01
2.761482200e+00  7.8894852e-01
2.761500610e+00  7.8732677e-01
2.761519020e+00  7.8538720e-01
2.761537430e+00  7.8325837e-01
2.761555840e+00  7.8114633e-01
2.761574250e+00  7.7930691e-01
2.761592661e+00  7.7799685e-01
2.761611071e+00  7.7741583e-01
2.761629482e+00  7.7765719e-01
2.761647893e+00  7.7868412e-01
2.761666304e+00  7.8033954e-01
2.761684715e+00  7.8238600e-01
2.761703126e+00  7.8456187e-01
2.761721538e+00  7.8663534e-01
2.761739949e+00  7.8844154e-01
2.761758361e+00  7.8989592e-01
2.761776773e+00  7.9098616e-01
2.761795184e+00  7.9175094e-01
2.761813596e+00  7.9225506e-01
