# Wave/freq Total
2.750000000e+00  7.9086670e-01
2.750018333e+00  7.9096955e-01
2.750036667e+00  7.9109004e-01
2.750055000e+00  7.9122484e-01
2.750073334e+00  7.9136905e-01
2.750091668e+00  7.9151676e-01
2.750110002e+00  7.9166178e-01
2.750128336e+00  7.9179826e-01
2.750146670e+00  7.9192116e-01
2.750165004e+00  7.9202644e-01
2.750183339e+00  7.9211111e-01
2.750201673e+00  7.9217312e-01
2.750220008e+00  7.9221125e-01
2.750238343e+00  7.9222502e-01
2.750256678e+00  7.9221465e-01
2.750275013e+00  7.9218097e-01
2.750293348e+00  7.9212536e-01
2.750311683e+00  7.9204972e-01
2.750330019e+00  7.9195676e-01
2.750348354e+00  7.9185053e-01
2.750366690e+00  7.9173727e-01
2.750385026e+00  7.9162591e-01
2.750403362e+00  7.9152785e-01
2.750421698e+00  7.9145553e-01
2.750440034e+00  7.9141965e-01
2.750458370e+00  7.9142608e-01
2.750476706e+00  7.9147321e-01
2.750495043e+00  7.9155126e-01
2.750513380e+00  7.9164395e-01
2.750531716e+00  7.9173244e-01
2.750550053e+00  7.9180035e-01
2.750568390e+00  7.9183832e-01
2.750586727e+00  7.9184668e-01
2.750605065e+00  7.9183524e-01
2.750623402e+00  7.9182035e-01
2.750641739e+00  7.9182010e-01
2.750660077e+00  7.9184915e-01
2.750678415e+00  7.9191477e-01
2.750696753e+00  7.9201530e-01
2.750715091e+00  7.9214111e-01
2.750733429e+00  7.9227779e-01
2.750751767e+00  7.9241014e-01
2.750770105e+00  7.9252583e-01
2.750788444e+00  7.9261761e-01
2.750806782e+00  7.9268395e-01
2.750825121e+00  7.9272803e-01
2.750843460e+00  7.9275599e-01
2.750861799e+00  7.9277475e-01
2.750880138e+00  7.9279036e-01
2.750898477e+00  7.9280691e-01
2.750916816e+00  7.9282619e-01
2.750935156e+00  7.9284801e-01
2.750953495e+00  7.9287091e-01
2.750971835e+00  7.9289294e-01
2.750990175e+00  7.9291237e-01
2.751008515e+00  7.9292805e-01
2.751026855e+00  7.9293954e-01
2.751045195e+00  7.9294701e-01
2.751063535e+00  7.9295100e-01
2.751081876e+00  7.9295220e-01
2.751100216e+00  7.9295130e-01
2.751118557e+00  7.9294885e-01
2.751136898e+00  7.9294522e-01
2.751155239e+00  7.9294067e-01
2.751173580e+00  7.9293534e-01
2.751191921e+00  7.9292922e-01
2.751210262e+00  7.9292231e-01
2.751228604e+00  7.9291447e-01
2.751246945e+00  7.9290543e-01
2.751265287e+00  7.9289471e-01
2.751283629e+00  7.9288141e-01
2.751301970e+00  7.9286400e-01
2.751320312e+00  7.9283996e-01
2.751338655e+00  7.9280543e-01
2.751356997e+00  7.9275500e-01
2.751375339e+00  7.9268177e-01
2.751393682e+00  7.9257808e-01
2.751412024e+00  7.9243695e-01
2.751430367e+00  7.9225435e-01
2.751448710e+00  7.9203176e-01
2.751467053e+00  7.9177837e-01
2.751485396e+00  7.9151174e-01
2.751503739e+00  7.9125621e-01
2.751522083e+00  7.9103869e-01
2.751540426e+00  7.9088271e-01
2.751558770e+00  7.9080226e-01
2.751577113e+00  7.9079746e-01
2.751595457e+00  7.9085366e-01
2.751613801e+00  7.9094450e-01
2.751632145e+00  7.9103796e-01
2.751650490e+00  7.9110373e-01
2.751668834e+00  7.9111950e-01
2.751687178e+00  7.9107475e-01
2.751705523e+00  7.9097110e-01
2.751723868e+00  7.9081954e-01
2.751742213e+00  7.9063594e-01
2.751760557e+00  7.9043516e-01
2.751778903e+00  7.9022606e-01
2.751797248e+00  7.9000731e-01
2.751815593e+00  7.8976470e-01
2.751833938e+00  7.8946975e-01
2.751852284e+00  7.8907975e-01
2.751870630e+00  7.8853916e-01
2.751888976e+00  7.8778313e-01
2.751907321e+00  7.8674420e-01
2.751925667e+00  7.8536331e-01
2.751944014e+00  7.8360533e-01
2.751962360e+00  7.8147756e-01
2.751980706e+00  7.7904731e-01
2.751999053e+00  7.7645198e-01
2.752017400e+00  7.7389553e-01
2.752035746e+00  7.7162674e-01
2.752054093e+00  7.6990067e-01
2.752072440e+00  7.6893055e-01
2.752090787e+00  7.6884295e-01
2.752109135e+00  7.6964945e-01
2.752127482e+00  7.7124419e-01
2.752145830e+00  7.7342809e-01
2.752164177e+00  7.7595211e-01
2.752182525e+00  7.7856625e-01
2.752200873e+00  7.8106059e-01
2.752219221e+00  7.8328941e-01
2.752237569e+00  7.8517599e-01
2.752255917e+00  7.8670210e-01
2.752274266e+00  7.8788920e-01
2.752292614e+00  7.8877869e-01
2.752310963e+00  7.8941629e-01
2.752329312e+00  7.8984292e-01
2.752347660e+00  7.9009204e-01
2.752366009e+00  7.9019177e-01
2.752384358e+00  7.9016957e-01
2.752402708e+00  7.9005698e-01
2.752421057e+00  7.8989212e-01
2.752439407e+00  7.8971851e-01
2.752457756e+00  7.8958028e-01
2.752476106e+00  7.8951469e-01
2.752494456e+00  7.8954446e-01
2.752512806e+00  7.8967318e-01
2.752531156e+00  7.8988460e-01
2.752549506e+00  7.9014689e-01
2.752567856e+00  7.9042011e-01
2.752586207e+00  7.9066414e-01
2.752604557e+00  7.9084490e-01
2.752622908e+00  7.9093696e-01
2.752641259e+00  7.9092278e-01
2.752659610e+00  7.9078951e-01
2.752677961e+00  7.9052542e-01
2.752696312e+00  7.9011787e-01
2.752714663e+00  7.8955438e-01
2.752733015e+00  7.8882739e-01
2.752751366e+00  7.8794191e-01
2.752769718e+00  7.8692421e-01
2.752788070e+00  7.8582805e-01
2.752806422e+00  7.8473523e-01
2.752824774e+00  7.8374781e-01
2.752843126e+00  7.8297248e-01
2.752861478e+00  7.8250013e-01
2.752879831e+00  7.8238645e-01
2.752898183e+00  7.8263966e-01
2.752916536e+00  7.8321931e-01
2.752934889e+00  7.8404640e-01
2.752953241e+00  7.8502103e-01
2.752971594e+00  7.8604211e-01
2.752989948e+00  7.8702323e-01
2.753008301e+00  7.8790142e-01
2.753026654e+00  7.8863827e-01
2.753045008e+00  7.8921548e-01
2.753063361e+00  7.8962756e-01
2.753081715e+00  7.8987502e-01
2.753100069e+00  7.8995947e-01
2.753118423e+00  7.8988219e-01
2.753136777e+00  7.8964573e-01
2.753155131e+00  7.8925814e-01
2.753173486e+00  7.8873795e-01
2.753191840e+00  7.8811811e-01
2.753210195e+00  7.8744639e-01
2.753228550e+00  7.8678096e-01
2.753246904e+00  7.8618129e-01
2.753265259e+00  7.8569666e-01
2.753283615e+00  7.8535627e-01
2.753301970e+00  7.8516497e-01
2.753320325e+00  7.8510671e-01
2.753338681e+00  7.8515488e-01
2.753357036e+00  7.8528538e-01
2.753375392e+00  7.8548680e-01
2.753393748e+00  7.8576353e-01
2.753412104e+00  7.8613027e-01
2.753430460e+00  7.8660100e-01
2.753448816e+00  7.8717734e-01
2.753467172e+00  7.8784148e-01
2.753485529e+00  7.8855663e-01
2.753503885e+00  7.8927433e-01
2.753522242e+00  7.8994524e-01
2.753540599e+00  7.9052932e-01
2.753558956e+00  7.9100204e-01
2.753577313e+00  7.9135537e-01
2.753595670e+00  7.9159447e-01
2.753614027e+00  7.9173217e-01
2.753632385e+00  7.9178306e-01
2.753650742e+00  7.9175879e-01
2.753669100e+00  7.9166515e-01
2.753687458e+00  7.9150055e-01
2.753705816e+00  7.9125603e-01
2.753724174e+00  7.9091638e-01
2.753742532e+00  7.9046283e-01
2.753760890e+00  7.8987780e-01
2.753779249e+00  7.8915162e-01
2.753797607e+00  7.8829073e-01
2.753815966e+00  7.8732537e-01
2.753834325e+00  7.8631372e-01
2.753852683e+00  7.8533990e-01
2.753871042e+00  7.8450374e-01
2.753889402e+00  7.8390373e-01
2.753907761e+00  7.8361690e-01
2.753926120e+00  7.8368155e-01
2.753944480e+00  7.8408837e-01
2.753962839e+00  7.8478293e-01
2.753981199e+00  7.8567862e-01
2.753999559e+00  7.8667565e-01
2.754017919e+00  7.8768022e-01
2.754036279e+00  7.8861886e-01
2.754054639e+00  7.8944499e-01
2.754073000e+00  7.9013815e-01
2.754091360e+00  7.9069824e-01
2.754109721e+00  7.9113746e-01
2.754128082e+00  7.9147251e-01
2.754146442e+00  7.9171859e-01
2.754164803e+00  7.9188524e-01
2.754183164e+00  7.9197425e-01
2.754201526e+00  7.9197940e-01
2.754219887e+00  7.9188811e-01
2.754238248e+00  7.9168545e-01
2.754256610e+00  7.9136050e-01
2.754274972e+00  7.9091422e-01
2.754293334e+00  7.9036705e-01
2.754311696e+00  7.8976312e-01
2.754330058e+00  7.8916868e-01
2.754348420e+00  7.8866292e-01
2.754366782e+00  7.8832268e-01
2.754385145e+00  7.8820508e-01
2.754403507e+00  7.8833335e-01
2.754421870e+00  7.8869099e-01
2.754440233e+00  7.8922623e-01
2.754458596e+00  7.8986526e-01
2.754476959e+00  7.9052957e-01
2.754495322e+00  7.9115192e-01
2.754513685e+00  7.9168652e-01
2.754532049e+00  7.9211199e-01
2.754550412e+00  7.9242802e-01
2.754568776e+00  7.9264842e-01
2.754587140e+00  7.9279368e-01
2.754605504e+00  7.9288492e-01
2.754623868e+00  7.9294023e-01
2.754642232e+00  7.9297325e-01
2.754660596e+00  7.9299323e-01
2.754678960e+00  7.9300597e-01
2.754697325e+00  7.9301478e-01
2.754715690e+00  7.9302144e-01
2.754734054e+00  7.9302681e-01
2.754752419e+00  7.9303119e-01
2.754770784e+00  7.9303462e-01
2.754789149e+00  7.9303676e-01
2.754807515e+00  7.9303718e-01
2.754825880e+00  7.9303517e-01
2.754844246e+00  7.9302986e-01
2.754862611e+00  7.9302039e-01
2.754880977e+00  7.9300615e-01
2.754899343e+00  7.9298705e-01
2.754917709e+00  7.9296387e-01
2.754936075e+00  7.9293840e-01
2.754954441e+00  7.9291337e-01
2.754972808e+00  7.9289205e-01
2.754991174e+00  7.9287762e-01
2.755009541e+00  7.9287235e-01
2.755027907e+00  7.9287712e-01
2.755046274e+00  7.9289088e-01
2.755064641e+00  7.9291073e-01
2.755083008e+00  7.9293212e-01
2.755101375e+00  7.9294891e-01
2.755119743e+00  7.9295308e-01
2.755138110e+00  7.9293394e-01
2.755156478e+00  7.9287682e-01
2.755174846e+00  7.9276199e-01
2.755193213e+00  7.9256462e-01
2.755211581e+00  7.9225704e-01
2.755229949e+00  7.9181399e-01
2.755248318e+00  7.9122103e-01
2.755266686e+00  7.9048433e-01
2.755285054e+00  7.8963892e-01
2.755303423e+00  7.8875135e-01
2.755321792e+00  7.8791375e-01
2.755340160e+00  7.8722855e-01
2.755358529e+00  7.8678699e-01
2.755376898e+00  7.8664755e-01
2.755395268e+00  7.8682151e-01
2.755413637e+00  7.8727070e-01
2.755432006e+00  7.8791817e-01
2.755450376e+00  7.8866792e-01
2.755468746e+00  7.8942670e-01
2.755487115e+00  7.9012124e-01
2.755505485e+00  7.9070696e-01
2.755523855e+00  7.9116778e-01
2.755542225e+00  7.9150997e-01
2.755560596e+00  7.9175351e-01
2.755578966e+00  7.9192414e-01
2.755597337e+00  7.9204758e-01
2.755615707e+00  7.9214589e-01
2.755634078e+00  7.9223556e-01
2.755652449e+00  7.9232676e-01
2.755670820e+00  7.9242345e-01
2.755689191e+00  7.9252443e-01
2.755707562e+00  7.9262503e-01
2.755725934e+00  7.9271923e-01
2.755744305e+00  7.9280153e-01
2.755762677e+00  7.9286823e-01
2.755781049e+00  7.9291799e-01
2.755799421e+00  7.9295171e-01
2.755817793e+00  7.9297177e-01
2.755836165e+00  7.9298130e-01
2.755854537e+00  7.9298345e-01
2.755872909e+00  7.9298094e-01
2.755891282e+00  7.9297572e-01
2.755909654e+00  7.9296894e-01
2.755928027e+00  7.9296093e-01
2.755946400e+00  7.9295129e-01
2.755964773e+00  7.9293888e-01
2.755983146e+00  7.9292198e-01
2.756001519e+00  7.9289841e-01
2.756019893e+00  7.9286611e-01
2.756038266e+00  7.9282338e-01
2.756056640e+00  7.9276951e-01
2.756075013e+00  7.9270489e-01
2.756093387e+00  7.9263040e-01
2.756111761e+00  7.9254592e-01
2.756130135e+00  7.9244782e-01
2.756148509e+00  7.9232599e-01
2.756166884e+00  7.9216127e-01
2.756185258e+00  7.9192457e-01
2.756203633e+00  7.9157915e-01
2.756222007e+00  7.9108714e-01
2.756240382e+00  7.9042049e-01
2.756258757e+00  7.8957460e-01
2.756277132e+00  7.8858101e-01
2.756295507e+00  7.8751397e-01
2.756313883e+00  7.8648624e-01
2.756332258e+00  7.8563198e-01
2.756350634e+00  7.8507943e-01
2.756369009e+00  7.8492058e-01
2.756387385e+00  7.8518759e-01
2.756405761e+00  7.8584415e-01
2.756424137e+00  7.8679480e-01
2.756442513e+00  7.8790895e-01
2.756460890e+00  7.8905120e-01
2.756479266e+00  7.9010829e-01
2.756497643e+00  7.9100553e-01
2.756516019e+00  7.9171058e-01
2.756534396e+00  7.9222664e-01
2.756552773e+00  7.9258006e-01
2.756571150e+00  7.9280737e-01
2.756589527e+00  7.9294517e-01
2.756607904e+00  7.9302426e-01
2.756626282e+00  7.9306749e-01
2.756644659e+00  7.9309018e-01
2.756663037e+00  7.9310172e-01
2.756681415e+00  7.9310739e-01
2.756699792e+00  7.9310992e-01
2.756718170e+00  7.9311052e-01
2.756736549e+00  7.9310963e-01
2.756754927e+00  7.9310729e-01
2.756773305e+00  7.9310330e-01
2.756791684e+00  7.9309764e-01
2.756810062e+00  7.9309043e-01
2.756828441e+00  7.9308204e-01
2.756846820e+00  7.9307320e-01
2.756865199e+00  7.9306487e-01
2.756883578e+00  7.9305815e-01
2.756901957e+00  7.9305399e-01
2.756920337e+00  7.9305300e-01
2.756938716e+00  7.9305529e-01
2.756957096e+00  7.9306042e-01
2.756975475e+00  7.9306755e-01
2.756993855e+00  7.9307557e-01
2.757012235e+00  7.9308327e-01
2.757030615e+00  7.9308974e-01
2.757048995e+00  7.9309403e-01
2.757067376e+00  7.9309507e-01
2.757085756e+00  7.9309111e-01
2.757104137e+00  7.9307873e-01
2.757122517e+00  7.9305141e-01
2.757140898e+00  7.9299750e-01
2.757159279e+00  7.9289792e-01
2.757177660e+00  7.9272416e-01
2.757196041e+00  7.9243784e-01
2.757214423e+00  7.9199347e-01
2.757232804e+00  7.9134592e-01
2.757251186e+00  7.9046313e-01
2.757269567e+00  7.8934222e-01
2.757287949e+00  7.8802490e-01
2.757306331e+00  7.8660559e-01
2.757324713e+00  7.8522651e-01
2.757343095e+00  7.8405682e-01
2.757361478e+00  7.8325899e-01
2.757379860e+00  7.8295126e-01
2.757398243e+00  7.8317816e-01
2.757416625e+00  7.8389937e-01
2.757435008e+00  7.8500088e-01
2.757453391e+00  7.8632429e-01
2.757471774e+00  7.8770404e-01
2.757490157e+00  7.8900044e-01
2.757508540e+00  7.9011991e-01
2.757526924e+00  7.9101956e-01
2.757545307e+00  7.9169898e-01
2.757563691e+00  7.9218546e-01
2.757582075e+00  7.9251868e-01
2.757600458e+00  7.9273900e-01
2.757618842e+00  7.9288089e-01
2.757637227e+00  7.9297055e-01
2.757655611e+00  7.9302642e-01
2.757673995e+00  7.9306081e-01
2.757692380e+00  7.9308173e-01
2.757710764e+00  7.9309427e-01
2.757729149e+00  7.9310171e-01
2.757747534e+00  7.9310608e-01
2.757765919e+00  7.9310868e-01
2.757784304e+00  7.9311017e-01
2.757802689e+00  7.9311106e-01
2.757821075e+00  7.9311158e-01
2.757839460e+00  7.9311187e-01
2.757857846e+00  7.9311198e-01
2.757876231e+00  7.9311194e-01
2.757894617e+00  7.9311178e-01
2.757913003e+00  7.9311150e-01
2.757931389e+00  7.9311110e-01
2.757949775e+00  7.9311058e-01
2.757968162e+00  7.9310992e-01
2.757986548e+00  7.9310910e-01
2.758004935e+00  7.9310810e-01
2.758023322e+00  7.9310688e-01
2.758041708e+00  7.9310523e-01
2.758060095e+00  7.9310306e-01
2.758078482e+00  7.9309987e-01
2.758096870e+00  7.9309465e-01
2.758115257e+00  7.9308529e-01
2.758133644e+00  7.9306760e-01
2.758152032e+00  7.9303369e-01
2.758170420e+00  7.9296971e-01
2.758188807e+00  7.9285314e-01
2.758207195e+00  7.9265043e-01
2.758225583e+00  7.9231635e-01
2.758243972e+00  7.9179702e-01
2.758262360e+00  7.9103854e-01
2.758280748e+00  7.9000181e-01
2.758299137e+00  7.8868172e-01
2.758317525e+00  7.8712556e-01
2.758335914e+00  7.8544349e-01
2.758354303e+00  7.8380353e-01
2.758372692e+00  7.8240766e-01
2.758391081e+00  7.8145220e-01
2.758409471e+00  7.8108268e-01
2.758427860e+00  7.8135746e-01
2.758446249e+00  7.8223253e-01
2.758464639e+00  7.8357307e-01
2.758483029e+00  7.8518749e-01
2.758501419e+00  7.8687211e-01
2.758519809e+00  7.8845218e-01
2.758538199e+00  7.8980825e-01
2.758556589e+00  7.9088367e-01
2.758574980e+00  7.9167591e-01
2.758593370e+00  7.9221886e-01
2.758611761e+00  7.9256354e-01
2.758630151e+00  7.9276279e-01
2.758648542e+00  7.9286222e-01
2.758666933e+00  7.9289690e-01
2.758685324e+00  7.9289216e-01
2.758703716e+00  7.9286600e-01
2.758722107e+00  7.9283167e-01
2.758740498e+00  7.9279936e-01
2.758758890e+00  7.9277677e-01
2.758777282e+00  7.9276900e-01
2.758795674e+00  7.9277817e-01
2.758814066e+00  7.9280317e-01
2.758832458e+00  7.9284051e-01
2.758850850e+00  7.9288500e-01
2.758869242e+00  7.9293114e-01
2.758887635e+00  7.9297422e-01
2.758906027e+00  7.9301104e-01
2.758924420e+00  7.9304010e-01
2.758942813e+00  7.9306140e-01
2.758961206e+00  7.9307589e-01
2.758979599e+00  7.9308503e-01
2.758997992e+00  7.9309026e-01
2.759016385e+00  7.9309285e-01
2.759034779e+00  7.9309372e-01
2.759053172e+00  7.9309350e-01
2.759071566e+00  7.9309254e-01
2.759089960e+00  7.9309084e-01
2.759108354e+00  7.9308842e-01
2.759126748e+00  7.9308479e-01
2.759145142e+00  7.9307887e-01
2.759163536e+00  7.9306837e-01
2.759181931e+00  7.9304870e-01
2.759200325e+00  7.9301121e-01
2.759218720e+00  7.9294066e-01
2.759237115e+00  7.9281219e-01
2.759255510e+00  7.9258853e-01
2.759273905e+00  7.9221915e-01
2.759292300e+00  7.9164330e-01
2.759310695e+00  7.9079934e-01
2.759329091e+00  7.8964106e-01
2.759347486e+00  7.8815920e-01
2.759365882e+00  7.8640260e-01
2.759384278e+00  7.8449098e-01
2.759402673e+00  7.8261079e-01
2.759421069e+00  7.8098974e-01
2.759439466e+00  7.7985302e-01
2.759457862e+00  7.7937225e-01
2.759476258e+00  7.7962286e-01
2.759494655e+00  7.8056469e-01
2.759513051e+00  7.8205247e-01
2.759531448e+00  7.8387264e-01
2.759549845e+00  7.8579343e-01
2.759568242e+00  7.8761230e-01
2.759586639e+00  7.8918756e-01
2.759605036e+00  7.9044890e-01
2.759623434e+00  7.9138918e-01
2.759641831e+00  7.9204500e-01
2.759660229e+00  7.9247472e-01
2.759678627e+00  7.9274028e-01
2.759697024e+00  7.9289578e-01
2.759715422e+00  7.9298259e-01
2.759733821e+00  7.9302923e-01
2.759752219e+00  7.9305370e-01
2.759770617e+00  7.9306648e-01
2.759789016e+00  7.9307326e-01
2.759807414e+00  7.9307685e-01
2.759825813e+00  7.9307848e-01
2.759844212e+00  7.9307850e-01
2.759862611e+00  7.9307648e-01
2.759881010e+00  7.9307173e-01
2.759899409e+00  7.9306313e-01
2.759917808e+00  7.9304927e-01
2.759936208e+00  7.9302877e-01
2.759954607e+00  7.9300068e-01
2.759973007e+00  7.9296500e-01
2.759991407e+00  7.9292314e-01
2.760009807e+00  7.9287820e-01
2.760028207e+00  7.9283475e-01
2.760046607e+00  7.9279818e-01
2.760065007e+00  7.9277359e-01
2.760083408e+00  7.9276463e-01
2.760101808e+00  7.9277254e-01
2.760120209e+00  7.9279584e-01
2.760138610e+00  7.9283069e-01
2.760157011e+00  7.9287169e-01
2.760175412e+00  7.9291330e-01
2.760193813e+00  7.9295048e-01
2.760212214e+00  7.9297907e-01
2.760230616e+00  7.9299532e-01
2.760249017e+00  7.9299450e-01
2.760267419e+00  7.9296848e-01
2.760285821e+00  7.9290257e-01
2.760304223e+00  7.9277185e-01
2.760322625e+00  7.9253785e-01
2.760341027e+00  7.9214735e-01
2.760359429e+00  7.9153546e-01
2.760377831e+00  7.9063529e-01
2.760396234e+00  7.8939527e-01
2.760414637e+00  7.8780232e-01
2.760433039e+00  7.8590503e-01
2.760451442e+00  7.8382844e-01
2.760469845e+00  7.8177083e-01
2.760488248e+00  7.7997780e-01
2.760506652e+00  7.7869585e-01
2.760525055e+00  7.7811711e-01
2.760543458e+00  7.7833203e-01
2.760561862e+00  7.7930612e-01
2.760580266e+00  7.8088907e-01
2.760598670e+00  7.8285275e-01
2.760617074e+00  7.8494503e-01
2.760635478e+00  7.8694195e-01
2.760653882e+00  7.8868361e-01
2.760672286e+00  7.9008743e-01
2.760690691e+00  7.9114064e-01
2.760709095e+00  7.9187987e-01
2.760727500e+00  7.9236731e-01
2.760745905e+00  7.9267048e-01
2.760764310e+00  7.9284915e-01
2.760782715e+00  7.9294958e-01
2.760801120e+00  7.9300393e-01
2.760819526e+00  7.9303269e-01
2.760837931e+00  7.9304792e-01
2.760856337e+00  7.9305624e-01
2.760874742e+00  7.9306110e-01
2.760893148e+00  7.9306419e-01
2.760911554e+00  7.9306636e-01
2.760929960e+00  7.9306787e-01
2.760948367e+00  7.9306899e-01
2.760966773e+00  7.9306982e-01
2.760985179e+00  7.9307042e-01
2.761003586e+00  7.9307082e-01
2.761021993e+00  7.9307104e-01
2.761040399e+00  7.9307108e-01
2.761058806e+00  7.9307096e-01
2.761077213e+00  7.9307067e-01
2.761095621e+00  7.9307018e-01
2.761114028e+00  7.9306942e-01
2.761132435e+00  7.9306828e-01
2.761150843e+00  7.9306654e-01
2.761169250e+00  7.9306380e-01
2.761187658e+00  7.9305946e-01
2.761206066e+00  7.9305264e-01
2.761224474e+00  7.9304213e-01
2.761242882e+00  7.9302639e-01
2.761261291e+00  7.9300397e-01
2.761279699e+00  7.9297343e-01
2.761298108e+00  7.9293355e-01
2.761316516e+00  7.9288312e-01
2.761334925e+00  7.9281992e-01
2.761353334e+00  7.9273855e-01
2.761371743e+00  7.9262704e-01
2.761390152e+00  7.9246241e-01
2.761408561e+00  7.9220645e-01
2.761426971e+00  7.9180375e-01
2.761445380e+00  7.9118470e-01
2.761463790e+00  7.9027600e-01
2.761482200e+00  7.8901956e-01
2.761500610e+00  7.8739763e-01
2.761519020e+00  7.8545785e-01
2.761537430e+00  7.8332879e-01
2.761555840e+00  7.8121652e-01
2.761574250e+00  7.7937690e-01
2.761592661e+00  7.7806668e-01
2.761611071e+00  7.7748555e-01
2.761629482e+00  7.7772688e-01
2.761647893e+00  7.7875385e-01
2.761666304e+00  7.8040935e-01
2.761684715e+00  7.8245594e-01
2.761703126e+00  7.8463194e-01
2.761721538e+00  7.8670554e-01
2.761739949e+00  7.8851185e-01
2.761758361e+00  7.8996631e-01
2.761776773e+00  7.9105662e-01
2.761795184e+00  7.9182142e-01
2.761813596e+00  7.9232556e-01
