# Wave/freq Total
2.750000000e+00  7.9248007e-01
2.750018333e+00  7.9251571e-01
2.750036667e+00  7.9255691e-01
2.750055000e+00  7.9260244e-01
2.750073334e+00  7.9265057e-01
2.750091668e+00  7.9269930e-01
2.750110002e+00  7.9274661e-01
2.750128336e+00  7.9279065e-01
2.750146670e+00  7.9282992e-01
2.750165004e+00  7.9286323e-01
2.750183339e+00  7.9288975e-01
2.750201673e+00  7.9290894e-01
2.750220008e+00  7.9292047e-01
2.750238343e+00  7.9292422e-01
2.750256678e+00  7.9292025e-01
2.750275013e+00  7.9290878e-01
2.750293348e+00  7.9289018e-01
2.750311683e+00  7.9286501e-01
2.750330019e+00  7.9283408e-01
2.750348354e+00  7.9279863e-01
2.750366690e+00  7.9276061e-01
2.750385026e+00  7.9272277e-01
2.750403362e+00  7.9268849e-01
2.750421698e+00  7.9266114e-01
2.750440034e+00  7.9264304e-01
2.750458370e+00  7.9263423e-01
2.750476706e+00  7.9263162e-01
2.750495043e+00  7.9262888e-01
2.750513380e+00  7.9261762e-01
2.750531716e+00  7.9258948e-01
2.750550053e+00  7.9253894e-01
2.750568390e+00  7.9246583e-01
2.750586727e+00  7.9237669e-01
2.750605065e+00  7.9228429e-01
2.750623402e+00  7.9220517e-01
2.750641739e+00  7.9215573e-01
2.750660077e+00  7.9214808e-01
2.750678415e+00  7.9218675e-01
2.750696753e+00  7.9226760e-01
2.750715091e+00  7.9237901e-01
2.750733429e+00  7.9250505e-01
2.750751767e+00  7.9262942e-01
2.750770105e+00  7.9273899e-01
2.750788444e+00  7.9282599e-01
2.750806782e+00  7.9288853e-01
2.750825121e+00  7.9292955e-01
2.750843460e+00  7.9295501e-01
2.750861799e+00  7.9297176e-01
2.750880138e+00  7.9298579e-01
2.750898477e+00  7.9300113e-01
2.750916816e+00  7.9301953e-01
2.750935156e+00  7.9304081e-01
2.750953495e+00  7.9306347e-01
2.750971835e+00  7.9308556e-01
2.750990175e+00  7.9310534e-01
2.751008515e+00  7.9312165e-01
2.751026855e+00  7.9313405e-01
2.751045195e+00  7.9314271e-01
2.751063535e+00  7.9314817e-01
2.751081876e+00  7.9315115e-01
2.751100216e+00  7.9315233e-01
2.751118557e+00  7.9315228e-01
2.751136898e+00  7.9315139e-01
2.751155239e+00  7.9314994e-01
2.751173580e+00  7.9314809e-01
2.751191921e+00  7.9314590e-01
2.751210262e+00  7.9314337e-01
2.751228604e+00  7.9314046e-01
2.751246945e+00  7.9313700e-01
2.751265287e+00  7.9313266e-01
2.751283629e+00  7.9312681e-01
2.751301970e+00  7.9311827e-01
2.751320312e+00  7.9310505e-01
2.751338655e+00  7.9308396e-01
2.751356997e+00  7.9305034e-01
2.751375339e+00  7.9299805e-01
2.751393682e+00  7.9291997e-01
2.751412024e+00  7.9280918e-01
2.751430367e+00  7.9266106e-01
2.751448710e+00  7.9247570e-01
2.751467053e+00  7.9226029e-01
2.751485396e+00  7.9203012e-01
2.751503739e+00  7.9180763e-01
2.751522083e+00  7.9161894e-01
2.751540426e+00  7.9148842e-01
2.751558770e+00  7.9143280e-01
2.751577113e+00  7.9145671e-01
2.751595457e+00  7.9155119e-01
2.751613801e+00  7.9169574e-01
2.751632145e+00  7.9186336e-01
2.751650490e+00  7.9202678e-01
2.751668834e+00  7.9216407e-01
2.751687178e+00  7.9226200e-01
2.751705523e+00  7.9231675e-01
2.751723868e+00  7.9233211e-01
2.751742213e+00  7.9231649e-01
2.751760557e+00  7.9227927e-01
2.751778903e+00  7.9222783e-01
2.751797248e+00  7.9216537e-01
2.751815593e+00  7.9208966e-01
2.751833938e+00  7.9199263e-01
2.751852284e+00  7.9186053e-01
2.751870630e+00  7.9167455e-01
2.751888976e+00  7.9141222e-01
2.751907321e+00  7.9104983e-01
2.751925667e+00  7.9056633e-01
2.751944014e+00  7.8994893e-01
2.751962360e+00  7.8919965e-01
2.751980706e+00  7.8834178e-01
2.751999053e+00  7.8742363e-01
2.752017400e+00  7.8651739e-01
2.752035746e+00  7.8571159e-01
2.752054093e+00  7.8509733e-01
2.752072440e+00  7.8475104e-01
2.752090787e+00  7.8471828e-01
2.752109135e+00  7.8500347e-01
2.752127482e+00  7.8556886e-01
2.752145830e+00  7.8634318e-01
2.752164177e+00  7.8723718e-01
2.752182525e+00  7.8816125e-01
2.752200873e+00  7.8904009e-01
2.752219221e+00  7.8982126e-01
2.752237569e+00  7.9047664e-01
2.752255917e+00  7.9099821e-01
2.752274266e+00  7.9139092e-01
2.752292614e+00  7.9166532e-01
2.752310963e+00  7.9183207e-01
2.752329312e+00  7.9189927e-01
2.752347660e+00  7.9187302e-01
2.752366009e+00  7.9176025e-01
2.752384358e+00  7.9157281e-01
2.752402708e+00  7.9133103e-01
2.752421057e+00  7.9106513e-01
2.752439407e+00  7.9081312e-01
2.752457756e+00  7.9061527e-01
2.752476106e+00  7.9050621e-01
2.752494456e+00  7.9050706e-01
2.752512806e+00  7.9062045e-01
2.752531156e+00  7.9082996e-01
2.752549506e+00  7.9110430e-01
2.752567856e+00  7.9140487e-01
2.752586207e+00  7.9169398e-01
2.752604557e+00  7.9194130e-01
2.752622908e+00  7.9212696e-01
2.752641259e+00  7.9224124e-01
2.752659610e+00  7.9228181e-01
2.752677961e+00  7.9225010e-01
2.752696312e+00  7.9214838e-01
2.752714663e+00  7.9197856e-01
2.752733015e+00  7.9174300e-01
2.752751366e+00  7.9144696e-01
2.752769718e+00  7.9110182e-01
2.752788070e+00  7.9072754e-01
2.752806422e+00  7.9035318e-01
2.752824774e+00  7.9001445e-01
2.752843126e+00  7.8974845e-01
2.752861478e+00  7.8958669e-01
2.752879831e+00  7.8954841e-01
2.752898183e+00  7.8963638e-01
2.752916536e+00  7.8983651e-01
2.752934889e+00  7.9012136e-01
2.752953241e+00  7.9045633e-01
2.752971594e+00  7.9080649e-01
2.752989948e+00  7.9114208e-01
2.753008301e+00  7.9144156e-01
2.753026654e+00  7.9169199e-01
2.753045008e+00  7.9188737e-01
2.753063361e+00  7.9202613e-01
2.753081715e+00  7.9210874e-01
2.753100069e+00  7.9213589e-01
2.753118423e+00  7.9210799e-01
2.753136777e+00  7.9202555e-01
2.753155131e+00  7.9189053e-01
2.753173486e+00  7.9170769e-01
2.753191840e+00  7.9148557e-01
2.753210195e+00  7.9123614e-01
2.753228550e+00  7.9097288e-01
2.753246904e+00  7.9070762e-01
2.753265259e+00  7.9044717e-01
2.753283615e+00  7.9019166e-01
2.753301970e+00  7.8993580e-01
2.753320325e+00  7.8967362e-01
2.753338681e+00  7.8940534e-01
2.753357036e+00  7.8914357e-01
2.753375392e+00  7.8891567e-01
2.753393748e+00  7.8876020e-01
2.753412104e+00  7.8871766e-01
2.753430460e+00  7.8881846e-01
2.753448816e+00  7.8907245e-01
2.753467172e+00  7.8946413e-01
2.753485529e+00  7.8995529e-01
2.753503885e+00  7.9049393e-01
2.753522242e+00  7.9102626e-01
2.753540599e+00  7.9150750e-01
2.753558956e+00  7.9190859e-01
2.753577313e+00  7.9221752e-01
2.753595670e+00  7.9243645e-01
2.753614027e+00  7.9257647e-01
2.753632385e+00  7.9265202e-01
2.753650742e+00  7.9267664e-01
2.753669100e+00  7.9266039e-01
2.753687458e+00  7.9260884e-01
2.753705816e+00  7.9252329e-01
2.753724174e+00  7.9240164e-01
2.753742532e+00  7.9223977e-01
2.753760890e+00  7.9203347e-01
2.753779249e+00  7.9178084e-01
2.753797607e+00  7.9148504e-01
2.753815966e+00  7.9115688e-01
2.753834325e+00  7.9081613e-01
2.753852683e+00  7.9049101e-01
2.753871042e+00  7.9021477e-01
2.753889402e+00  7.9002005e-01
2.753907761e+00  7.8993224e-01
2.753926120e+00  7.8996362e-01
2.753944480e+00  7.9011041e-01
2.753962839e+00  7.9035365e-01
2.753981199e+00  7.9066357e-01
2.753999559e+00  7.9100613e-01
2.754017919e+00  7.9134944e-01
2.754036279e+00  7.9166872e-01
2.754054639e+00  7.9194835e-01
2.754073000e+00  7.9218151e-01
2.754091360e+00  7.9236801e-01
2.754109721e+00  7.9251126e-01
2.754128082e+00  7.9261517e-01
2.754146442e+00  7.9268153e-01
2.754164803e+00  7.9270793e-01
2.754183164e+00  7.9268645e-01
2.754201526e+00  7.9260343e-01
2.754219887e+00  7.9244078e-01
2.754238248e+00  7.9217956e-01
2.754256610e+00  7.9180592e-01
2.754274972e+00  7.9131869e-01
2.754293334e+00  7.9073671e-01
2.754311696e+00  7.9010294e-01
2.754330058e+00  7.8948270e-01
2.754348420e+00  7.8895448e-01
2.754366782e+00  7.8859459e-01
2.754385145e+00  7.8845970e-01
2.754403507e+00  7.8857269e-01
2.754421870e+00  7.8891677e-01
2.754440233e+00  7.8943992e-01
2.754458596e+00  7.9006811e-01
2.754476959e+00  7.9072264e-01
2.754495322e+00  7.9133611e-01
2.754513685e+00  7.9186262e-01
2.754532049e+00  7.9228068e-01
2.754550412e+00  7.9258988e-01
2.754568776e+00  7.9280398e-01
2.754587140e+00  7.9294341e-01
2.754605504e+00  7.9302925e-01
2.754623868e+00  7.9307954e-01
2.754642232e+00  7.9310790e-01
2.754660596e+00  7.9312355e-01
2.754678960e+00  7.9313226e-01
2.754697325e+00  7.9313731e-01
2.754715690e+00  7.9314045e-01
2.754734054e+00  7.9314253e-01
2.754752419e+00  7.9314383e-01
2.754770784e+00  7.9314435e-01
2.754789149e+00  7.9314378e-01
2.754807515e+00  7.9314164e-01
2.754825880e+00  7.9313722e-01
2.754844246e+00  7.9312965e-01
2.754862611e+00  7.9311807e-01
2.754880977e+00  7.9310183e-01
2.754899343e+00  7.9308086e-01
2.754917709e+00  7.9305592e-01
2.754936075e+00  7.9302880e-01
2.754954441e+00  7.9300222e-01
2.754972808e+00  7.9297947e-01
2.754991174e+00  7.9296369e-01
2.755009541e+00  7.9295718e-01
2.755027907e+00  7.9296081e-01
2.755046274e+00  7.9297354e-01
2.755064641e+00  7.9299249e-01
2.755083008e+00  7.9301309e-01
2.755101375e+00  7.9302921e-01
2.755119743e+00  7.9303288e-01
2.755138110e+00  7.9301339e-01
2.755156478e+00  7.9295612e-01
2.755174846e+00  7.9284138e-01
2.755193213e+00  7.9264444e-01
2.755211581e+00  7.9233775e-01
2.755229949e+00  7.9189634e-01
2.755248318e+00  7.9130617e-01
2.755266686e+00  7.9057411e-01
2.755285054e+00  7.8973619e-01
2.755303423e+00  7.8886040e-01
2.755321792e+00  7.8804064e-01
2.755340160e+00  7.8738135e-01
2.755358529e+00  7.8697562e-01
2.755376898e+00  7.8688317e-01
2.755395268e+00  7.8711526e-01
2.755413637e+00  7.8763197e-01
2.755432006e+00  7.8835275e-01
2.755450376e+00  7.8917644e-01
2.755468746e+00  7.9000399e-01
2.755487115e+00  7.9075687e-01
2.755505485e+00  7.9138684e-01
2.755523855e+00  7.9187643e-01
2.755542225e+00  7.9223246e-01
2.755560596e+00  7.9247667e-01
2.755578966e+00  7.9263660e-01
2.755597337e+00  7.9273903e-01
2.755615707e+00  7.9280616e-01
2.755634078e+00  7.9285424e-01
2.755652449e+00  7.9289377e-01
2.755670820e+00  7.9293037e-01
2.755689191e+00  7.9296606e-01
2.755707562e+00  7.9300062e-01
2.755725934e+00  7.9303272e-01
2.755744305e+00  7.9306088e-01
2.755762677e+00  7.9308407e-01
2.755781049e+00  7.9310191e-01
2.755799421e+00  7.9311474e-01
2.755817793e+00  7.9312334e-01
2.755836165e+00  7.9312870e-01
2.755854537e+00  7.9313179e-01
2.755872909e+00  7.9313340e-01
2.755891282e+00  7.9313408e-01
2.755909654e+00  7.9313404e-01
2.755928027e+00  7.9313322e-01
2.755946400e+00  7.9313123e-01
2.755964773e+00  7.9312746e-01
2.755983146e+00  7.9312105e-01
2.756001519e+00  7.9311094e-01
2.756019893e+00  7.9309616e-01
2.756038266e+00  7.9307557e-01
2.756056640e+00  7.9304806e-01
2.756075013e+00  7.9301219e-01
2.756093387e+00  7.9296563e-01
2.756111761e+00  7.9290407e-01
2.756130135e+00  7.9281961e-01
2.756148509e+00  7.9269888e-01
2.756166884e+00  7.9252133e-01
2.756185258e+00  7.9225877e-01
2.756203633e+00  7.9187746e-01
2.756222007e+00  7.9134381e-01
2.756240382e+00  7.9063436e-01
2.756258757e+00  7.8974844e-01
2.756277132e+00  7.8872023e-01
2.756295507e+00  7.8762525e-01
2.756313883e+00  7.8657626e-01
2.756332258e+00  7.8570663e-01
2.756350634e+00  7.8514339e-01
2.756369009e+00  7.8497731e-01
2.756387385e+00  7.8523948e-01
2.756405761e+00  7.8589276e-01
2.756424137e+00  7.8684113e-01
2.756442513e+00  7.8795363e-01
2.756460890e+00  7.8909463e-01
2.756479266e+00  7.9015071e-01
2.756497643e+00  7.9104711e-01
2.756516019e+00  7.9175144e-01
2.756534396e+00  7.9226686e-01
2.756552773e+00  7.9261971e-01
2.756571150e+00  7.9284651e-01
2.756589527e+00  7.9298386e-01
2.756607904e+00  7.9306255e-01
2.756626282e+00  7.9310545e-01
2.756644659e+00  7.9312789e-01
2.756663037e+00  7.9313933e-01
2.756681415e+00  7.9314513e-01
2.756699792e+00  7.9314816e-01
2.756718170e+00  7.9314983e-01
2.756736549e+00  7.9315082e-01
2.756754927e+00  7.9315149e-01
2.756773305e+00  7.9315186e-01
2.756791684e+00  7.9315210e-01
2.756810062e+00  7.9315221e-01
2.756828441e+00  7.9315222e-01
2.756846820e+00  7.9315213e-01
2.756865199e+00  7.9315195e-01
2.756883578e+00  7.9315167e-01
2.756901957e+00  7.9315129e-01
2.756920337e+00  7.9315082e-01
2.756938716e+00  7.9315023e-01
2.756957096e+00  7.9314952e-01
2.756975475e+00  7.9314867e-01
2.756993855e+00  7.9314764e-01
2.757012235e+00  7.9314625e-01
2.757030615e+00  7.9314444e-01
2.757048995e+00  7.9314177e-01
2.757067376e+00  7.9313735e-01
2.757085756e+00  7.9312937e-01
2.757104137e+00  7.9311420e-01
2.757122517e+00  7.9308502e-01
2.757140898e+00  7.9302991e-01
2.757159279e+00  7.9292957e-01
2.757177660e+00  7.9275530e-01
2.757196041e+00  7.9246863e-01
2.757214423e+00  7.9202399e-01
2.757232804e+00  7.9137622e-01
2.757251186e+00  7.9049322e-01
2.757269567e+00  7.8937211e-01
2.757287949e+00  7.8805459e-01
2.757306331e+00  7.8663509e-01
2.757324713e+00  7.8525583e-01
2.757343095e+00  7.8408596e-01
2.757361478e+00  7.8328799e-01
2.757379860e+00  7.8298015e-01
2.757398243e+00  7.8320696e-01
2.757416625e+00  7.8392811e-01
2.757435008e+00  7.8502957e-01
2.757453391e+00  7.8635295e-01
2.757471774e+00  7.8773267e-01
2.757490157e+00  7.8902902e-01
2.757508540e+00  7.9014844e-01
2.757526924e+00  7.9104802e-01
2.757545307e+00  7.9172737e-01
2.757563691e+00  7.9221376e-01
2.757582075e+00  7.9254688e-01
2.757600458e+00  7.9276712e-01
2.757618842e+00  7.9290891e-01
2.757637227e+00  7.9299848e-01
2.757655611e+00  7.9305425e-01
2.757673995e+00  7.9308856e-01
2.757692380e+00  7.9310938e-01
2.757710764e+00  7.9312184e-01
2.757729149e+00  7.9312918e-01
2.757747534e+00  7.9313345e-01
2.757765919e+00  7.9313596e-01
2.757784304e+00  7.9313736e-01
2.757802689e+00  7.9313816e-01
2.757821075e+00  7.9313860e-01
2.757839460e+00  7.9313880e-01
2.757857846e+00  7.9313883e-01
2.757876231e+00  7.9313872e-01
2.757894617e+00  7.9313848e-01
2.757913003e+00  7.9313812e-01
2.757931389e+00  7.9313765e-01
2.757949775e+00  7.9313704e-01
2.757968162e+00  7.9313631e-01
2.757986548e+00  7.9313542e-01
2.758004935e+00  7.9313435e-01
2.758023322e+00  7.9313306e-01
2.758041708e+00  7.9313135e-01
2.758060095e+00  7.9312912e-01
2.758078482e+00  7.9312586e-01
2.758096870e+00  7.9312058e-01
2.758115257e+00  7.9311116e-01
2.758133644e+00  7.9309340e-01
2.758152032e+00  7.9305941e-01
2.758170420e+00  7.9299534e-01
2.758188807e+00  7.9287868e-01
2.758207195e+00  7.9267588e-01
2.758225583e+00  7.9234170e-01
2.758243972e+00  7.9182227e-01
2.758262360e+00  7.9106368e-01
2.758280748e+00  7.9002685e-01
2.758299137e+00  7.8870664e-01
2.758317525e+00  7.8715038e-01
2.758335914e+00  7.8546821e-01
2.758354303e+00  7.8382816e-01
2.758372692e+00  7.8243221e-01
2.758391081e+00  7.8147668e-01
2.758409471e+00  7.8110712e-01
2.758427860e+00  7.8138188e-01
2.758446249e+00  7.8225694e-01
2.758464639e+00  7.8359750e-01
2.758483029e+00  7.8521195e-01
2.758501419e+00  7.8689659e-01
2.758519809e+00  7.8847669e-01
2.758538199e+00  7.8983279e-01
2.758556589e+00  7.9090822e-01
2.758574980e+00  7.9170047e-01
2.758593370e+00  7.9224341e-01
2.758611761e+00  7.9258807e-01
2.758630151e+00  7.9278729e-01
2.758648542e+00  7.9288666e-01
2.758666933e+00  7.9292129e-01
2.758685324e+00  7.9291647e-01
2.758703716e+00  7.9289023e-01
2.758722107e+00  7.9285583e-01
2.758740498e+00  7.9282345e-01
2.758758890e+00  7.9280080e-01
2.758777282e+00  7.9279297e-01
2.758795674e+00  7.9280209e-01
2.758814066e+00  7.9282704e-01
2.758832458e+00  7.9286434e-01
2.758850850e+00  7.9290880e-01
2.758869242e+00  7.9295490e-01
2.758887635e+00  7.9299794e-01
2.758906027e+00  7.9303471e-01
2.758924420e+00  7.9306373e-01
2.758942813e+00  7.9308497e-01
2.758961206e+00  7.9309942e-01
2.758979599e+00  7.9310849e-01
2.758997992e+00  7.9311368e-01
2.759016385e+00  7.9311622e-01
2.759034779e+00  7.9311705e-01
2.759053172e+00  7.9311679e-01
2.759071566e+00  7.9311580e-01
2.759089960e+00  7.9311407e-01
2.759108354e+00  7.9311162e-01
2.759126748e+00  7.9310795e-01
2.759145142e+00  7.9310200e-01
2.759163536e+00  7.9309147e-01
2.759181931e+00  7.9307176e-01
2.759200325e+00  7.9303423e-01
2.759218720e+00  7.9296364e-01
2.759237115e+00  7.9283511e-01
2.759255510e+00  7.9261140e-01
2.759273905e+00  7.9224195e-01
2.759292300e+00  7.9166601e-01
2.759310695e+00  7.9082196e-01
2.759329091e+00  7.8966359e-01
2.759347486e+00  7.8818162e-01
2.759365882e+00  7.8642491e-01
2.759384278e+00  7.8451320e-01
2.759402673e+00  7.8263292e-01
2.759421069e+00  7.8101178e-01
2.759439466e+00  7.7987501e-01
2.759457862e+00  7.7939420e-01
2.759476258e+00  7.7964479e-01
2.759494655e+00  7.8058661e-01
2.759513051e+00  7.8207441e-01
2.759531448e+00  7.8389459e-01
2.759549845e+00  7.8581541e-01
2.759568242e+00  7.8763429e-01
2.759586639e+00  7.8920955e-01
2.759605036e+00  7.9047090e-01
2.759623434e+00  7.9141119e-01
2.759641831e+00  7.9206700e-01
2.759660229e+00  7.9249671e-01
2.759678627e+00  7.9276226e-01
2.759697024e+00  7.9291775e-01
2.759715422e+00  7.9300454e-01
2.759733821e+00  7.9305117e-01
2.759752219e+00  7.9307561e-01
2.759770617e+00  7.9308836e-01
2.759789016e+00  7.9309511e-01
2.759807414e+00  7.9309867e-01
2.759825813e+00  7.9310026e-01
2.759844212e+00  7.9310025e-01
2.759862611e+00  7.9309819e-01
2.759881010e+00  7.9309342e-01
2.759899409e+00  7.9308479e-01
2.759917808e+00  7.9307091e-01
2.759936208e+00  7.9305039e-01
2.759954607e+00  7.9302228e-01
2.759973007e+00  7.9298657e-01
2.759991407e+00  7.9294470e-01
2.760009807e+00  7.9289974e-01
2.760028207e+00  7.9285627e-01
2.760046607e+00  7.9281968e-01
2.760065007e+00  7.9279508e-01
2.760083408e+00  7.9278610e-01
2.760101808e+00  7.9279400e-01
2.760120209e+00  7.9281730e-01
2.760138610e+00  7.9285216e-01
2.760157011e+00  7.9289317e-01
2.760175412e+00  7.9293480e-01
2.760193813e+00  7.9297199e-01
2.760212214e+00  7.9300059e-01
2.760230616e+00  7.9301684e-01
2.760249017e+00  7.9301601e-01
2.760267419e+00  7.9298996e-01
2.760285821e+00  7.9292402e-01
2.760304223e+00  7.9279326e-01
2.760322625e+00  7.9255920e-01
2.760341027e+00  7.9216865e-01
2.760359429e+00  7.9155669e-01
2.760377831e+00  7.9065645e-01
2.760396234e+00  7.8941636e-01
2.760414637e+00  7.8782333e-01
2.760433039e+00  7.8592597e-01
2.760451442e+00  7.8384929e-01
2.760469845e+00  7.8179161e-01
2.760488248e+00  7.7999852e-01
2.760506652e+00  7.7871652e-01
2.760525055e+00  7.7813776e-01
2.760543458e+00  7.7835267e-01
2.760561862e+00  7.7932678e-01
2.760580266e+00  7.8090977e-01
2.760598670e+00  7.8287349e-01
2.760617074e+00  7.8496582e-01
2.760635478e+00  7.8696278e-01
2.760653882e+00  7.8870447e-01
2.760672286e+00  7.9010831e-01
2.760690691e+00  7.9116152e-01
2.760709095e+00  7.9190074e-01
2.760727500e+00  7.9238816e-01
2.760745905e+00  7.9269130e-01
2.760764310e+00  7.9286995e-01
2.760782715e+00  7.9297035e-01
2.760801120e+00  7.9302467e-01
2.760819526e+00  7.9305342e-01
2.760837931e+00  7.9306864e-01
2.760856337e+00  7.9307696e-01
2.760874742e+00  7.9308182e-01
2.760893148e+00  7.9308491e-01
2.760911554e+00  7.9308709e-01
2.760929960e+00  7.9308860e-01
2.760948367e+00  7.9308972e-01
2.760966773e+00  7.9309055e-01
2.760985179e+00  7.9309114e-01
2.761003586e+00  7.9309153e-01
2.761021993e+00  7.9309173e-01
2.761040399e+00  7.9309176e-01
2.761058806e+00  7.9309161e-01
2.761077213e+00  7.9309129e-01
2.761095621e+00  7.9309076e-01
2.761114028e+00  7.9308997e-01
2.761132435e+00  7.9308879e-01
2.761150843e+00  7.9308700e-01
2.761169250e+00  7.9308422e-01
2.761187658e+00  7.9307985e-01
2.761206066e+00  7.9307300e-01
2.761224474e+00  7.9306247e-01
2.761242882e+00  7.9304671e-01
2.761261291e+00  7.9302428e-01
2.761279699e+00  7.9299373e-01
2.761298108e+00  7.9295386e-01
2.761316516e+00  7.9290343e-01
2.761334925e+00  7.9284023e-01
2.761353334e+00  7.9275887e-01
2.761371743e+00  7.9264736e-01
2.761390152e+00  7.9248273e-01
2.761408561e+00  7.9222675e-01
2.761426971e+00  7.9182403e-01
2.761445380e+00  7.9120496e-01
2.761463790e+00  7.9029621e-01
2.761482200e+00  7.8903972e-01
2.761500610e+00  7.8741774e-01
2.761519020e+00  7.8547789e-01
2.761537430e+00  7.8334877e-01
2.761555840e+00  7.8123644e-01
2.761574250e+00  7.7939676e-01
2.761592661e+00  7.7808650e-01
2.761611071e+00  7.7750535e-01
2.761629482e+00  7.7774668e-01
2.761647893e+00  7.7877367e-01
2.761666304e+00  7.8042921e-01
2.761684715e+00  7.8247583e-01
2.761703126e+00  7.8465188e-01
2.761721538e+00  7.8672552e-01
2.761739949e+00  7.8853186e-01
2.761758361e+00  7.8998634e-01
2.761776773e+00  7.9107665e-01
2.761795184e+00  7.9184146e-01
2.761813596e+00  7.9234559e-01
