# Wave/freq Total
2.750000000e+00  7.8683263e-01
2.750018333e+00  7.8710371e-01
2.750036667e+00  7.8742259e-01
2.750055000e+00  7.8778068e-01
2.750073334e+00  7.8816509e-01
2.750091668e+00  7.8856009e-01
2.750110002e+00  7.8894903e-01
2.750128336e+00  7.8931607e-01
2.750146670e+00  7.8964741e-01
2.750165004e+00  7.8993199e-01
2.750183339e+00  7.9016154e-01
2.750201673e+00  7.9033040e-01
2.750220008e+00  7.9043523e-01
2.750238343e+00  7.9047483e-01
2.750256678e+00  7.9044999e-01
2.750275013e+00  7.9036325e-01
2.750293348e+00  7.9021860e-01
2.750311683e+00  7.9002151e-01
2.750330019e+00  7.8977947e-01
2.750348354e+00  7.8950353e-01
2.750366690e+00  7.8921035e-01
2.750385026e+00  7.8892382e-01
2.750403362e+00  7.8867468e-01
2.750421698e+00  7.8849705e-01
2.750440034e+00  7.8842185e-01
2.750458370e+00  7.8846879e-01
2.750476706e+00  7.8863980e-01
2.750495043e+00  7.8891653e-01
2.750513380e+00  7.8926357e-01
2.750531716e+00  7.8963661e-01
2.750550053e+00  7.8999292e-01
2.750568390e+00  7.9030093e-01
2.750586727e+00  7.9054593e-01
2.750605065e+00  7.9073065e-01
2.750623402e+00  7.9087110e-01
2.750641739e+00  7.9098953e-01
2.750660077e+00  7.9110693e-01
2.750678415e+00  7.9123735e-01
2.750696753e+00  7.9138511e-01
2.750715091e+00  7.9154549e-01
2.750733429e+00  7.9170775e-01
2.750751767e+00  7.9185936e-01
2.750770105e+00  7.9198985e-01
2.750788444e+00  7.9209327e-01
2.750806782e+00  7.9216892e-01
2.750825121e+00  7.9222059e-01
2.750843460e+00  7.9225473e-01
2.750861799e+00  7.9227851e-01
2.750880138e+00  7.9229813e-01
2.750898477e+00  7.9231778e-01
2.750916816e+00  7.9233929e-01
2.750935156e+00  7.9236253e-01
2.750953495e+00  7.9238607e-01
2.750971835e+00  7.9240798e-01
2.750990175e+00  7.9242655e-01
2.751008515e+00  7.9244063e-01
2.751026855e+00  7.9244980e-01
2.751045195e+00  7.9245423e-01
2.751063535e+00  7.9245444e-01
2.751081876e+00  7.9245112e-01
2.751100216e+00  7.9244493e-01
2.751118557e+00  7.9243637e-01
2.751136898e+00  7.9242580e-01
2.751155239e+00  7.9241339e-01
2.751173580e+00  7.9239922e-01
2.751191921e+00  7.9238322e-01
2.751210262e+00  7.9236524e-01
2.751228604e+00  7.9234498e-01
2.751246945e+00  7.9232191e-01
2.751265287e+00  7.9229514e-01
2.751283629e+00  7.9226317e-01
2.751301970e+00  7.9222355e-01
2.751320312e+00  7.9217246e-01
2.751338655e+00  7.9210440e-01
2.751356997e+00  7.9201203e-01
2.751375339e+00  7.9188658e-01
2.751393682e+00  7.9171907e-01
2.751412024e+00  7.9150231e-01
2.751430367e+00  7.9123372e-01
2.751448710e+00  7.9091821e-01
2.751467053e+00  7.9056988e-01
2.751485396e+00  7.9021185e-01
2.751503739e+00  7.8987302e-01
2.751522083e+00  7.8958217e-01
2.751540426e+00  7.8936064e-01
2.751558770e+00  7.8921545e-01
2.751577113e+00  7.8913553e-01
2.751595457e+00  7.8909230e-01
2.751613801e+00  7.8904509e-01
2.751632145e+00  7.8894993e-01
2.751650490e+00  7.8876945e-01
2.751668834e+00  7.8848100e-01
2.751687178e+00  7.8808130e-01
2.751705523e+00  7.8758572e-01
2.751723868e+00  7.8702313e-01
2.751742213e+00  7.8642761e-01
2.751760557e+00  7.8582734e-01
2.751778903e+00  7.8523473e-01
2.751797248e+00  7.8463777e-01
2.751815593e+00  7.8399427e-01
2.751833938e+00  7.8322908e-01
2.751852284e+00  7.8223458e-01
2.751870630e+00  7.8087499e-01
2.751888976e+00  7.7899580e-01
2.751907321e+00  7.7644062e-01
2.751925667e+00  7.7307773e-01
2.751944014e+00  7.6883618e-01
2.751962360e+00  7.6374742e-01
2.751980706e+00  7.5798312e-01
2.751999053e+00  7.5187495e-01
2.752017400e+00  7.4590244e-01
2.752035746e+00  7.4064062e-01
2.752054093e+00  7.3667080e-01
2.752072440e+00  7.3447248e-01
2.752090787e+00  7.3432416e-01
2.752109135e+00  7.3624277e-01
2.752127482e+00  7.3998082e-01
2.752145830e+00  7.4508246e-01
2.752164177e+00  7.5098094e-01
2.752182525e+00  7.5710781e-01
2.752200873e+00  7.6298437e-01
2.752219221e+00  7.6827560e-01
2.752237569e+00  7.7280185e-01
2.752255917e+00  7.7651677e-01
2.752274266e+00  7.7946697e-01
2.752292614e+00  7.8174894e-01
2.752310963e+00  7.8347411e-01
2.752329312e+00  7.8474682e-01
2.752347660e+00  7.8565497e-01
2.752366009e+00  7.8627016e-01
2.752384358e+00  7.8665294e-01
2.752402708e+00  7.8685931e-01
2.752421057e+00  7.8694515e-01
2.752439407e+00  7.8696675e-01
2.752457756e+00  7.8697734e-01
2.752476106e+00  7.8702042e-01
2.752494456e+00  7.8712264e-01
2.752512806e+00  7.8728989e-01
2.752531156e+00  7.8750641e-01
2.752549506e+00  7.8773913e-01
2.752567856e+00  7.8794485e-01
2.752586207e+00  7.8807788e-01
2.752604557e+00  7.8809537e-01
2.752622908e+00  7.8795918e-01
2.752641259e+00  7.8763398e-01
2.752659610e+00  7.8708337e-01
2.752677961e+00  7.8626644e-01
2.752696312e+00  7.8513792e-01
2.752714663e+00  7.8365439e-01
2.752733015e+00  7.8178767e-01
2.752751366e+00  7.7954405e-01
2.752769718e+00  7.7698483e-01
2.752788070e+00  7.7424071e-01
2.752806422e+00  7.7151199e-01
2.752824774e+00  7.6904910e-01
2.752843126e+00  7.6711378e-01
2.752861478e+00  7.6592919e-01
2.752879831e+00  7.6563247e-01
2.752898183e+00  7.6624474e-01
2.752916536e+00  7.6766805e-01
2.752934889e+00  7.6970972e-01
2.752953241e+00  7.7212530e-01
2.752971594e+00  7.7466621e-01
2.752989948e+00  7.7711849e-01
2.753008301e+00  7.7932428e-01
2.753026654e+00  7.8118504e-01
2.753045008e+00  7.8265107e-01
2.753063361e+00  7.8370442e-01
2.753081715e+00  7.8434246e-01
2.753100069e+00  7.8456649e-01
2.753118423e+00  7.8437836e-01
2.753136777e+00  7.8378495e-01
2.753155131e+00  7.8280881e-01
2.753173486e+00  7.8150135e-01
2.753191840e+00  7.7995317e-01
2.753210195e+00  7.7829601e-01
2.753228550e+00  7.7669235e-01
2.753246904e+00  7.7531253e-01
2.753265259e+00  7.7430438e-01
2.753283615e+00  7.7376463e-01
2.753301970e+00  7.7372188e-01
2.753320325e+00  7.7413721e-01
2.753338681e+00  7.7492259e-01
2.753357036e+00  7.7596954e-01
2.753375392e+00  7.7717743e-01
2.753393748e+00  7.7847148e-01
2.753412104e+00  7.7980622e-01
2.753430460e+00  7.8115664e-01
2.753448816e+00  7.8250384e-01
2.753467172e+00  7.8382321e-01
2.753485529e+00  7.8507998e-01
2.753503885e+00  7.8623272e-01
2.753522242e+00  7.8724177e-01
2.753540599e+00  7.8807762e-01
2.753558956e+00  7.8872625e-01
2.753577313e+00  7.8918887e-01
2.753595670e+00  7.8947781e-01
2.753614027e+00  7.8961007e-01
2.753632385e+00  7.8960072e-01
2.753650742e+00  7.8945730e-01
2.753669100e+00  7.8917592e-01
2.753687458e+00  7.8873890e-01
2.753705816e+00  7.8811434e-01
2.753724174e+00  7.8725793e-01
2.753742532e+00  7.8611873e-01
2.753760890e+00  7.8465011e-01
2.753779249e+00  7.8282627e-01
2.753797607e+00  7.8066243e-01
2.753815966e+00  7.7823378e-01
2.753834325e+00  7.7568578e-01
2.753852683e+00  7.7322878e-01
2.753871042e+00  7.7111255e-01
2.753889402e+00  7.6958383e-01
2.753907761e+00  7.6883630e-01
2.753926120e+00  7.6896773e-01
2.753944480e+00  7.6995766e-01
2.753962839e+00  7.7167332e-01
2.753981199e+00  7.7390116e-01
2.753999559e+00  7.7639378e-01
2.754017919e+00  7.7891729e-01
2.754036279e+00  7.8128703e-01
2.754054639e+00  7.8338439e-01
2.754073000e+00  7.8515576e-01
2.754091360e+00  7.8659894e-01
2.754109721e+00  7.8774409e-01
2.754128082e+00  7.8863561e-01
2.754146442e+00  7.8931823e-01
2.754164803e+00  7.8982832e-01
2.754183164e+00  7.9018978e-01
2.754201526e+00  7.9041355e-01
2.754219887e+00  7.9049993e-01
2.754238248e+00  7.9044351e-01
2.754256610e+00  7.9024039e-01
2.754274972e+00  7.8989672e-01
2.754293334e+00  7.8943687e-01
2.754311696e+00  7.8890785e-01
2.754330058e+00  7.8837820e-01
2.754348420e+00  7.8792885e-01
2.754366782e+00  7.8763799e-01
2.754385145e+00  7.8756383e-01
2.754403507e+00  7.8773048e-01
2.754421870e+00  7.8812219e-01
2.754440233e+00  7.8868784e-01
2.754458596e+00  7.8935414e-01
2.754476959e+00  7.9004308e-01
2.754495322e+00  7.9068777e-01
2.754513685e+00  7.9124276e-01
2.754532049e+00  7.9168693e-01
2.754550412e+00  7.9202015e-01
2.754568776e+00  7.9225642e-01
2.754587140e+00  7.9241635e-01
2.754605504e+00  7.9252118e-01
2.754623868e+00  7.9258911e-01
2.754642232e+00  7.9263385e-01
2.754660596e+00  7.9266476e-01
2.754678960e+00  7.9268768e-01
2.754697325e+00  7.9270600e-01
2.754715690e+00  7.9272155e-01
2.754734054e+00  7.9273522e-01
2.754752419e+00  7.9274739e-01
2.754770784e+00  7.9275812e-01
2.754789149e+00  7.9276712e-01
2.754807515e+00  7.9277398e-01
2.754825880e+00  7.9277802e-01
2.754844246e+00  7.9277842e-01
2.754862611e+00  7.9277433e-01
2.754880977e+00  7.9276515e-01
2.754899343e+00  7.9275081e-01
2.754917709e+00  7.9273211e-01
2.754936075e+00  7.9271084e-01
2.754954441e+00  7.9268973e-01
2.754972808e+00  7.9267206e-01
2.754991174e+00  7.9266097e-01
2.755009541e+00  7.9265874e-01
2.755027907e+00  7.9266621e-01
2.755046274e+00  7.9268228e-01
2.755064641e+00  7.9270403e-01
2.755083008e+00  7.9272684e-01
2.755101375e+00  7.9274451e-01
2.755119743e+00  7.9274900e-01
2.755138110e+00  7.9272952e-01
2.755156478e+00  7.9267138e-01
2.755174846e+00  7.9255473e-01
2.755193213e+00  7.9235457e-01
2.755211581e+00  7.9204283e-01
2.755229949e+00  7.9159364e-01
2.755248318e+00  7.9099149e-01
2.755266686e+00  7.9024087e-01
2.755285054e+00  7.8937438e-01
2.755303423e+00  7.8845524e-01
2.755321792e+00  7.8757136e-01
2.755340160e+00  7.8682042e-01
2.755358529e+00  7.8628917e-01
2.755376898e+00  7.8603303e-01
2.755395268e+00  7.8606316e-01
2.755413637e+00  7.8634536e-01
2.755432006e+00  7.8681131e-01
2.755450376e+00  7.8737741e-01
2.755468746e+00  7.8796459e-01
2.755487115e+00  7.8851261e-01
2.755505485e+00  7.8898614e-01
2.755523855e+00  7.8937308e-01
2.755542225e+00  7.8967878e-01
2.755560596e+00  7.8991943e-01
2.755578966e+00  7.9011668e-01
2.755597337e+00  7.9029378e-01
2.755615707e+00  7.9047232e-01
2.755634078e+00  7.9066897e-01
2.755652449e+00  7.9089252e-01
2.755670820e+00  7.9114222e-01
2.755689191e+00  7.9140832e-01
2.755707562e+00  7.9167482e-01
2.755725934e+00  7.9192384e-01
2.755744305e+00  7.9213987e-01
2.755762677e+00  7.9231292e-01
2.755781049e+00  7.9243961e-01
2.755799421e+00  7.9252269e-01
2.755817793e+00  7.9256913e-01
2.755836165e+00  7.9258792e-01
2.755854537e+00  7.9258807e-01
2.755872909e+00  7.9257718e-01
2.755891282e+00  7.9256073e-01
2.755909654e+00  7.9254172e-01
2.755928027e+00  7.9252093e-01
2.755946400e+00  7.9249707e-01
2.755964773e+00  7.9246702e-01
2.755983146e+00  7.9242629e-01
2.756001519e+00  7.9236952e-01
2.756019893e+00  7.9229197e-01
2.756038266e+00  7.9219079e-01
2.756056640e+00  7.9206691e-01
2.756075013e+00  7.9192595e-01
2.756093387e+00  7.9177753e-01
2.756111761e+00  7.9163253e-01
2.756130135e+00  7.9149824e-01
2.756148509e+00  7.9137276e-01
2.756166884e+00  7.9124012e-01
2.756185258e+00  7.9106855e-01
2.756203633e+00  7.9081338e-01
2.756222007e+00  7.9042565e-01
2.756240382e+00  7.8986567e-01
2.756258757e+00  7.8911905e-01
2.756277132e+00  7.8821088e-01
2.756295507e+00  7.8721265e-01
2.756313883e+00  7.8623747e-01
2.756332258e+00  7.8542181e-01
2.756350634e+00  7.8489704e-01
2.756369009e+00  7.8475819e-01
2.756387385e+00  7.8503992e-01
2.756405761e+00  7.8570762e-01
2.756424137e+00  7.8666697e-01
2.756442513e+00  7.8778803e-01
2.756460890e+00  7.8893582e-01
2.756479266e+00  7.8999733e-01
2.756497643e+00  7.9089811e-01
2.756516019e+00  7.9160600e-01
2.756534396e+00  7.9212437e-01
2.756552773e+00  7.9247969e-01
2.756571150e+00  7.9270860e-01
2.756589527e+00  7.9284778e-01
2.756607904e+00  7.9292804e-01
2.756626282e+00  7.9297224e-01
2.756644659e+00  7.9299567e-01
2.756663037e+00  7.9300761e-01
2.756681415e+00  7.9301316e-01
2.756699792e+00  7.9301475e-01
2.756718170e+00  7.9301314e-01
2.756736549e+00  7.9300820e-01
2.756754927e+00  7.9299934e-01
2.756773305e+00  7.9298578e-01
2.756791684e+00  7.9296720e-01
2.756810062e+00  7.9294388e-01
2.756828441e+00  7.9291708e-01
2.756846820e+00  7.9288909e-01
2.756865199e+00  7.9286305e-01
2.756883578e+00  7.9284243e-01
2.756901957e+00  7.9283030e-01
2.756920337e+00  7.9282856e-01
2.756938716e+00  7.9283753e-01
2.756957096e+00  7.9285579e-01
2.756975475e+00  7.9288061e-01
2.756993855e+00  7.9290855e-01
2.757012235e+00  7.9293611e-01
2.757030615e+00  7.9296059e-01
2.757048995e+00  7.9297995e-01
2.757067376e+00  7.9299273e-01
2.757085756e+00  7.9299736e-01
2.757104137e+00  7.9299094e-01
2.757122517e+00  7.9296757e-01
2.757140898e+00  7.9291621e-01
2.757159279e+00  7.9281828e-01
2.757177660e+00  7.9264562e-01
2.757196041e+00  7.9236009e-01
2.757214423e+00  7.9191635e-01
2.757232804e+00  7.9126936e-01
2.757251186e+00  7.9038709e-01
2.757269567e+00  7.8926670e-01
2.757287949e+00  7.8794989e-01
2.757306331e+00  7.8653110e-01
2.757324713e+00  7.8515251e-01
2.757343095e+00  7.8398328e-01
2.757361478e+00  7.8318587e-01
2.757379860e+00  7.8287850e-01
2.757398243e+00  7.8310571e-01
2.757416625e+00  7.8382717e-01
2.757435008e+00  7.8492888e-01
2.757453391e+00  7.8625247e-01
2.757471774e+00  7.8763239e-01
2.757490157e+00  7.8892895e-01
2.757508540e+00  7.9004860e-01
2.757526924e+00  7.9094843e-01
2.757545307e+00  7.9162805e-01
2.757563691e+00  7.9211474e-01
2.757582075e+00  7.9244816e-01
2.757600458e+00  7.9266871e-01
2.757618842e+00  7.9281082e-01
2.757637227e+00  7.9290071e-01
2.757655611e+00  7.9295681e-01
2.757673995e+00  7.9299143e-01
2.757692380e+00  7.9301257e-01
2.757710764e+00  7.9302533e-01
2.757729149e+00  7.9303297e-01
2.757747534e+00  7.9303755e-01
2.757765919e+00  7.9304035e-01
2.757784304e+00  7.9304203e-01
2.757802689e+00  7.9304311e-01
2.757821075e+00  7.9304383e-01
2.757839460e+00  7.9304431e-01
2.757857846e+00  7.9304461e-01
2.757876231e+00  7.9304476e-01
2.757894617e+00  7.9304478e-01
2.757913003e+00  7.9304467e-01
2.757931389e+00  7.9304443e-01
2.757949775e+00  7.9304404e-01
2.757968162e+00  7.9304348e-01
2.757986548e+00  7.9304271e-01
2.758004935e+00  7.9304168e-01
2.758023322e+00  7.9304032e-01
2.758041708e+00  7.9303838e-01
2.758060095e+00  7.9303576e-01
2.758078482e+00  7.9303195e-01
2.758096870e+00  7.9302600e-01
2.758115257e+00  7.9301585e-01
2.758133644e+00  7.9299743e-01
2.758152032e+00  7.9296295e-01
2.758170420e+00  7.9289867e-01
2.758188807e+00  7.9278217e-01
2.758207195e+00  7.9257991e-01
2.758225583e+00  7.9224661e-01
2.758243972e+00  7.9172832e-01
2.758262360e+00  7.9097102e-01
2.758280748e+00  7.8993551e-01
2.758299137e+00  7.8861657e-01
2.758317525e+00  7.8706145e-01
2.758335914e+00  7.8538026e-01
2.758354303e+00  7.8374101e-01
2.758372692e+00  7.8234569e-01
2.758391081e+00  7.8139064e-01
2.758409471e+00  7.8102140e-01
2.758427860e+00  7.8129636e-01
2.758446249e+00  7.8217152e-01
2.758464639e+00  7.8351211e-01
2.758483029e+00  7.8512655e-01
2.758501419e+00  7.8681118e-01
2.758519809e+00  7.8839128e-01
2.758538199e+00  7.8974741e-01
2.758556589e+00  7.9082291e-01
2.758574980e+00  7.9161525e-01
2.758593370e+00  7.9215831e-01
2.758611761e+00  7.9250311e-01
2.758630151e+00  7.9270248e-01
2.758648542e+00  7.9280202e-01
2.758666933e+00  7.9283681e-01
2.758685324e+00  7.9283217e-01
2.758703716e+00  7.9280610e-01
2.758722107e+00  7.9277186e-01
2.758740498e+00  7.9273964e-01
2.758758890e+00  7.9271715e-01
2.758777282e+00  7.9270947e-01
2.758795674e+00  7.9271875e-01
2.758814066e+00  7.9274385e-01
2.758832458e+00  7.9278128e-01
2.758850850e+00  7.9282588e-01
2.758869242e+00  7.9287212e-01
2.758887635e+00  7.9291530e-01
2.758906027e+00  7.9295221e-01
2.758924420e+00  7.9298136e-01
2.758942813e+00  7.9300275e-01
2.758961206e+00  7.9301734e-01
2.758979599e+00  7.9302655e-01
2.758997992e+00  7.9303187e-01
2.759016385e+00  7.9303453e-01
2.759034779e+00  7.9303548e-01
2.759053172e+00  7.9303533e-01
2.759071566e+00  7.9303444e-01
2.759089960e+00  7.9303281e-01
2.759108354e+00  7.9303046e-01
2.759126748e+00  7.9302690e-01
2.759145142e+00  7.9302106e-01
2.759163536e+00  7.9301065e-01
2.759181931e+00  7.9299108e-01
2.759200325e+00  7.9295369e-01
2.759218720e+00  7.9288324e-01
2.759237115e+00  7.9275488e-01
2.759255510e+00  7.9253134e-01
2.759273905e+00  7.9216209e-01
2.759292300e+00  7.9158637e-01
2.759310695e+00  7.9074255e-01
2.759329091e+00  7.8958445e-01
2.759347486e+00  7.8810277e-01
2.759365882e+00  7.8634637e-01
2.759384278e+00  7.8443497e-01
2.759402673e+00  7.8255499e-01
2.759421069e+00  7.8093413e-01
2.759439466e+00  7.7979756e-01
2.759457862e+00  7.7931689e-01
2.759476258e+00  7.7956754e-01
2.759494655e+00  7.8050935e-01
2.759513051e+00  7.8199708e-01
2.759531448e+00  7.8381717e-01
2.759549845e+00  7.8573789e-01
2.759568242e+00  7.8755669e-01
2.759586639e+00  7.8913191e-01
2.759605036e+00  7.9039325e-01
2.759623434e+00  7.9133355e-01
2.759641831e+00  7.9198941e-01
2.759660229e+00  7.9241918e-01
2.759678627e+00  7.9268480e-01
2.759697024e+00  7.9284036e-01
2.759715422e+00  7.9292723e-01
2.759733821e+00  7.9297394e-01
2.759752219e+00  7.9299847e-01
2.759770617e+00  7.9301132e-01
2.759789016e+00  7.9301815e-01
2.759807414e+00  7.9302181e-01
2.759825813e+00  7.9302350e-01
2.759844212e+00  7.9302358e-01
2.759862611e+00  7.9302161e-01
2.759881010e+00  7.9301692e-01
2.759899409e+00  7.9300837e-01
2.759917808e+00  7.9299457e-01
2.759936208e+00  7.9297412e-01
2.759954607e+00  7.9294610e-01
2.759973007e+00  7.9291048e-01
2.759991407e+00  7.9286870e-01
2.760009807e+00  7.9282383e-01
2.760028207e+00  7.9278046e-01
2.760046607e+00  7.9274397e-01
2.760065007e+00  7.9271946e-01
2.760083408e+00  7.9271057e-01
2.760101808e+00  7.9271855e-01
2.760120209e+00  7.9274193e-01
2.760138610e+00  7.9277686e-01
2.760157011e+00  7.9281793e-01
2.760175412e+00  7.9285962e-01
2.760193813e+00  7.9289688e-01
2.760212214e+00  7.9292553e-01
2.760230616e+00  7.9294185e-01
2.760249017e+00  7.9294108e-01
2.760267419e+00  7.9291511e-01
2.760285821e+00  7.9284925e-01
2.760304223e+00  7.9271857e-01
2.760322625e+00  7.9248462e-01
2.760341027e+00  7.9209418e-01
2.760359429e+00  7.9148236e-01
2.760377831e+00  7.9058228e-01
2.760396234e+00  7.8934238e-01
2.760414637e+00  7.8774957e-01
2.760433039e+00  7.8585244e-01
2.760451442e+00  7.8377602e-01
2.760469845e+00  7.8171858e-01
2.760488248e+00  7.7992569e-01
2.760506652e+00  7.7864386e-01
2.760525055e+00  7.7806519e-01
2.760543458e+00  7.7828013e-01
2.760561862e+00  7.7925420e-01
2.760580266e+00  7.8083710e-01
2.760598670e+00  7.8280070e-01
2.760617074e+00  7.8489292e-01
2.760635478e+00  7.8688976e-01
2.760653882e+00  7.8863137e-01
2.760672286e+00  7.9003516e-01
2.760690691e+00  7.9108835e-01
2.760709095e+00  7.9182757e-01
2.760727500e+00  7.9231501e-01
2.760745905e+00  7.9261818e-01
2.760764310e+00  7.9279687e-01
2.760782715e+00  7.9289733e-01
2.760801120e+00  7.9295172e-01
2.760819526e+00  7.9298053e-01
2.760837931e+00  7.9299582e-01
2.760856337e+00  7.9300422e-01
2.760874742e+00  7.9300916e-01
2.760893148e+00  7.9301232e-01
2.760911554e+00  7.9301455e-01
2.760929960e+00  7.9301613e-01
2.760948367e+00  7.9301730e-01
2.760966773e+00  7.9301817e-01
2.760985179e+00  7.9301881e-01
2.761003586e+00  7.9301923e-01
2.761021993e+00  7.9301947e-01
2.761040399e+00  7.9301953e-01
2.761058806e+00  7.9301941e-01
2.761077213e+00  7.9301912e-01
2.761095621e+00  7.9301862e-01
2.761114028e+00  7.9301786e-01
2.761132435e+00  7.9301670e-01
2.761150843e+00  7.9301495e-01
2.761169250e+00  7.9301220e-01
2.761187658e+00  7.9300787e-01
2.761206066e+00  7.9300105e-01
2.761224474e+00  7.9299057e-01
2.761242882e+00  7.9297486e-01
2.761261291e+00  7.9295248e-01
2.761279699e+00  7.9292199e-01
2.761298108e+00  7.9288218e-01
2.761316516e+00  7.9283182e-01
2.761334925e+00  7.9276870e-01
2.761353334e+00  7.9268741e-01
2.761371743e+00  7.9257598e-01
2.761390152e+00  7.9241142e-01
2.761408561e+00  7.9215554e-01
2.761426971e+00  7.9175291e-01
2.761445380e+00  7.9113394e-01
2.761463790e+00  7.9022532e-01
2.761482200e+00  7.8896898e-01
2.761500610e+00  7.8734717e-01
2.761519020e+00  7.8540754e-01
2.761537430e+00  7.8327864e-01
2.761555840e+00  7.8116653e-01
2.761574250e+00  7.7932706e-01
2.761592661e+00  7.7801697e-01
2.761611071e+00  7.7743593e-01
2.761629482e+00  7.7767729e-01
2.761647893e+00  7.7870426e-01
2.761666304e+00  7.8035971e-01
2.761684715e+00  7.8240622e-01
2.761703126e+00  7.8458213e-01
2.761721538e+00  7.8665563e-01
2.761739949e+00  7.8846186e-01
2.761758361e+00  7.8991625e-01
2.761776773e+00  7.9100650e-01
2.761795184e+00  7.9177127e-01
2.761813596e+00  7.9227538e-01
