# Wave/freq Total
2.750000000e+00  7.9326964e-01
2.750018333e+00  7.9326953e-01
2.750036667e+00  7.9326940e-01
2.750055000e+00  7.9326926e-01
2.750073334e+00  7.9326909e-01
2.750091668e+00  7.9326892e-01
2.750110002e+00  7.9326873e-01
2.750128336e+00  7.9326853e-01
2.750146670e+00  7.9326833e-01
2.750165004e+00  7.9326811e-01
2.750183339e+00  7.9326789e-01
2.750201673e+00  7.9326766e-01
2.750220008e+00  7.9326741e-01
2.750238343e+00  7.9326716e-01
2.750256678e+00  7.9326690e-01
2.750275013e+00  7.9326662e-01
2.750293348e+00  7.9326632e-01
2.750311683e+00  7.9326599e-01
2.750330019e+00  7.9326558e-01
2.750348354e+00  7.9326500e-01
2.750366690e+00  7.9326408e-01
2.750385026e+00  7.9326244e-01
2.750403362e+00  7.9325938e-01
2.750421698e+00  7.9325370e-01
2.750440034e+00  7.9324346e-01
2.750458370e+00  7.9322578e-01
2.750476706e+00  7.9319688e-01
2.750495043e+00  7.9315230e-01
2.750513380e+00  7.9308775e-01
2.750531716e+00  7.9300035e-01
2.750550053e+00  7.9289019e-01
2.750568390e+00  7.9276181e-01
2.750586727e+00  7.9262490e-01
2.750605065e+00  7.9249360e-01
2.750623402e+00  7.9238439e-01
2.750641739e+00  7.9231261e-01
2.750660077e+00  7.9228883e-01
2.750678415e+00  7.9231606e-01
2.750696753e+00  7.9238879e-01
2.750715091e+00  7.9249438e-01
2.750733429e+00  7.9261613e-01
2.750751767e+00  7.9273725e-01
2.750770105e+00  7.9284428e-01
2.750788444e+00  7.9292925e-01
2.750806782e+00  7.9299011e-01
2.750825121e+00  7.9302976e-01
2.750843460e+00  7.9305408e-01
2.750861799e+00  7.9306990e-01
2.750880138e+00  7.9308318e-01
2.750898477e+00  7.9309792e-01
2.750916816e+00  7.9311589e-01
2.750935156e+00  7.9313687e-01
2.750953495e+00  7.9315938e-01
2.750971835e+00  7.9318145e-01
2.750990175e+00  7.9320135e-01
2.751008515e+00  7.9321791e-01
2.751026855e+00  7.9323071e-01
2.751045195e+00  7.9323992e-01
2.751063535e+00  7.9324609e-01
2.751081876e+00  7.9324994e-01
2.751100216e+00  7.9325215e-01
2.751118557e+00  7.9325329e-01
2.751136898e+00  7.9325379e-01
2.751155239e+00  7.9325391e-01
2.751173580e+00  7.9325382e-01
2.751191921e+00  7.9325359e-01
2.751210262e+00  7.9325327e-01
2.751228604e+00  7.9325281e-01
2.751246945e+00  7.9325212e-01
2.751265287e+00  7.9325093e-01
2.751283629e+00  7.9324872e-01
2.751301970e+00  7.9324449e-01
2.751320312e+00  7.9323648e-01
2.751338655e+00  7.9322180e-01
2.751356997e+00  7.9319617e-01
2.751375339e+00  7.9315378e-01
2.751393682e+00  7.9308776e-01
2.751412024e+00  7.9299125e-01
2.751430367e+00  7.9285933e-01
2.751448710e+00  7.9269150e-01
2.751467053e+00  7.9249402e-01
2.751485396e+00  7.9228119e-01
2.751503739e+00  7.9207460e-01
2.751522083e+00  7.9190004e-01
2.751540426e+00  7.9178231e-01
2.751558770e+00  7.9173952e-01
2.751577113e+00  7.9177844e-01
2.751595457e+00  7.9189279e-01
2.751613801e+00  7.9206488e-01
2.751632145e+00  7.9227006e-01
2.751650490e+00  7.9248251e-01
2.751668834e+00  7.9268038e-01
2.751687178e+00  7.9284907e-01
2.751705523e+00  7.9298200e-01
2.751723868e+00  7.9307942e-01
2.751742213e+00  7.9314610e-01
2.751760557e+00  7.9318881e-01
2.751778903e+00  7.9321441e-01
2.751797248e+00  7.9322866e-01
2.751815593e+00  7.9323581e-01
2.751833938e+00  7.9323863e-01
2.751852284e+00  7.9323872e-01
2.751870630e+00  7.9323689e-01
2.751888976e+00  7.9323348e-01
2.751907321e+00  7.9322864e-01
2.751925667e+00  7.9322256e-01
2.751944014e+00  7.9321560e-01
2.751962360e+00  7.9320832e-01
2.751980706e+00  7.9320151e-01
2.751999053e+00  7.9319601e-01
2.752017400e+00  7.9319259e-01
2.752035746e+00  7.9319173e-01
2.752054093e+00  7.9319352e-01
2.752072440e+00  7.9319764e-01
2.752090787e+00  7.9320341e-01
2.752109135e+00  7.9320998e-01
2.752127482e+00  7.9321652e-01
2.752145830e+00  7.9322232e-01
2.752164177e+00  7.9322684e-01
2.752182525e+00  7.9322967e-01
2.752200873e+00  7.9323030e-01
2.752219221e+00  7.9322782e-01
2.752237569e+00  7.9322048e-01
2.752255917e+00  7.9320517e-01
2.752274266e+00  7.9317685e-01
2.752292614e+00  7.9312828e-01
2.752310963e+00  7.9305015e-01
2.752329312e+00  7.9293216e-01
2.752347660e+00  7.9276519e-01
2.752366009e+00  7.9254456e-01
2.752384358e+00  7.9227366e-01
2.752402708e+00  7.9196688e-01
2.752421057e+00  7.9165025e-01
2.752439407e+00  7.9135894e-01
2.752457756e+00  7.9113124e-01
2.752476106e+00  7.9100043e-01
2.752494456e+00  7.9098680e-01
2.752512806e+00  7.9109252e-01
2.752531156e+00  7.9130100e-01
2.752549506e+00  7.9158121e-01
2.752567856e+00  7.9189520e-01
2.752586207e+00  7.9220646e-01
2.752604557e+00  7.9248654e-01
2.752622908e+00  7.9271843e-01
2.752641259e+00  7.9289652e-01
2.752659610e+00  7.9302406e-01
2.752677961e+00  7.9310954e-01
2.752696312e+00  7.9316331e-01
2.752714663e+00  7.9319513e-01
2.752733015e+00  7.9321288e-01
2.752751366e+00  7.9322222e-01
2.752769718e+00  7.9322686e-01
2.752788070e+00  7.9322903e-01
2.752806422e+00  7.9322996e-01
2.752824774e+00  7.9323029e-01
2.752843126e+00  7.9323035e-01
2.752861478e+00  7.9323027e-01
2.752879831e+00  7.9323012e-01
2.752898183e+00  7.9322991e-01
2.752916536e+00  7.9322968e-01
2.752934889e+00  7.9322941e-01
2.752953241e+00  7.9322913e-01
2.752971594e+00  7.9322882e-01
2.752989948e+00  7.9322848e-01
2.753008301e+00  7.9322812e-01
2.753026654e+00  7.9322773e-01
2.753045008e+00  7.9322730e-01
2.753063361e+00  7.9322678e-01
2.753081715e+00  7.9322615e-01
2.753100069e+00  7.9322526e-01
2.753118423e+00  7.9322384e-01
2.753136777e+00  7.9322129e-01
2.753155131e+00  7.9321641e-01
2.753173486e+00  7.9320695e-01
2.753191840e+00  7.9318896e-01
2.753210195e+00  7.9315604e-01
2.753228550e+00  7.9309869e-01
2.753246904e+00  7.9300416e-01
2.753265259e+00  7.9285742e-01
2.753283615e+00  7.9264362e-01
2.753301970e+00  7.9235237e-01
2.753320325e+00  7.9198308e-01
2.753338681e+00  7.9155005e-01
2.753357036e+00  7.9108511e-01
2.753375392e+00  7.9063589e-01
2.753393748e+00  7.9025872e-01
2.753412104e+00  7.9000741e-01
2.753430460e+00  7.8992067e-01
2.753448816e+00  7.9001233e-01
2.753467172e+00  7.9026772e-01
2.753485529e+00  7.9064749e-01
2.753503885e+00  7.9109755e-01
2.753522242e+00  7.9156161e-01
2.753540599e+00  7.9199236e-01
2.753558956e+00  7.9235838e-01
2.753577313e+00  7.9264567e-01
2.753595670e+00  7.9285493e-01
2.753614027e+00  7.9299642e-01
2.753632385e+00  7.9308460e-01
2.753650742e+00  7.9313404e-01
2.753669100e+00  7.9315704e-01
2.753687458e+00  7.9316297e-01
2.753705816e+00  7.9315851e-01
2.753724174e+00  7.9314846e-01
2.753742532e+00  7.9313642e-01
2.753760890e+00  7.9312527e-01
2.753779249e+00  7.9311725e-01
2.753797607e+00  7.9311390e-01
2.753815966e+00  7.9311589e-01
2.753834325e+00  7.9312291e-01
2.753852683e+00  7.9313390e-01
2.753871042e+00  7.9314728e-01
2.753889402e+00  7.9316132e-01
2.753907761e+00  7.9317453e-01
2.753926120e+00  7.9318587e-01
2.753944480e+00  7.9319482e-01
2.753962839e+00  7.9320134e-01
2.753981199e+00  7.9320571e-01
2.753999559e+00  7.9320835e-01
2.754017919e+00  7.9320965e-01
2.754036279e+00  7.9320998e-01
2.754054639e+00  7.9320947e-01
2.754073000e+00  7.9320796e-01
2.754091360e+00  7.9320480e-01
2.754109721e+00  7.9319848e-01
2.754128082e+00  7.9318604e-01
2.754146442e+00  7.9316223e-01
2.754164803e+00  7.9311843e-01
2.754183164e+00  7.9304172e-01
2.754201526e+00  7.9291465e-01
2.754219887e+00  7.9271635e-01
2.754238248e+00  7.9242588e-01
2.754256610e+00  7.9202792e-01
2.754274972e+00  7.9152025e-01
2.754293334e+00  7.9092089e-01
2.754311696e+00  7.9027222e-01
2.754330058e+00  7.8963911e-01
2.754348420e+00  7.8909970e-01
2.754366782e+00  7.8873001e-01
2.754385145e+00  7.8858652e-01
2.754403507e+00  7.8869191e-01
2.754421870e+00  7.8902926e-01
2.754440233e+00  7.8954640e-01
2.754458596e+00  7.9016919e-01
2.754476959e+00  7.9081886e-01
2.754495322e+00  7.9142791e-01
2.754513685e+00  7.9195037e-01
2.754532049e+00  7.9236471e-01
2.754550412e+00  7.9267048e-01
2.754568776e+00  7.9288142e-01
2.754587140e+00  7.9301793e-01
2.754605504e+00  7.9310106e-01
2.754623868e+00  7.9314885e-01
2.754642232e+00  7.9317489e-01
2.754660596e+00  7.9318839e-01
2.754678960e+00  7.9319508e-01
2.754697325e+00  7.9319826e-01
2.754715690e+00  7.9319965e-01
2.754734054e+00  7.9320007e-01
2.754752419e+00  7.9319982e-01
2.754770784e+00  7.9319888e-01
2.754789149e+00  7.9319693e-01
2.754807515e+00  7.9319349e-01
2.754825880e+00  7.9318786e-01
2.754844246e+00  7.9317915e-01
2.754862611e+00  7.9316649e-01
2.754880977e+00  7.9314926e-01
2.754899343e+00  7.9312736e-01
2.754917709e+00  7.9310156e-01
2.754936075e+00  7.9307364e-01
2.754954441e+00  7.9304632e-01
2.754972808e+00  7.9302288e-01
2.754991174e+00  7.9300647e-01
2.755009541e+00  7.9299938e-01
2.755027907e+00  7.9300247e-01
2.755046274e+00  7.9301471e-01
2.755064641e+00  7.9303320e-01
2.755083008e+00  7.9305339e-01
2.755101375e+00  7.9306917e-01
2.755119743e+00  7.9307254e-01
2.755138110e+00  7.9305282e-01
2.755156478e+00  7.9299540e-01
2.755174846e+00  7.9288062e-01
2.755193213e+00  7.9268377e-01
2.755211581e+00  7.9237738e-01
2.755229949e+00  7.9193655e-01
2.755248318e+00  7.9134742e-01
2.755266686e+00  7.9061714e-01
2.755285054e+00  7.8978215e-01
2.755303423e+00  7.8891106e-01
2.755321792e+00  7.8809859e-01
2.755340160e+00  7.8745015e-01
2.755358529e+00  7.8705982e-01
2.755376898e+00  7.8698806e-01
2.755395268e+00  7.8724637e-01
2.755413637e+00  7.8779425e-01
2.755432006e+00  7.8854965e-01
2.755450376e+00  7.8940909e-01
2.755468746e+00  7.9027075e-01
2.755487115e+00  7.9105347e-01
2.755505485e+00  7.9170703e-01
2.755523855e+00  7.9221299e-01
2.755542225e+00  7.9257819e-01
2.755560596e+00  7.9282497e-01
2.755578966e+00  7.9298161e-01
2.755597337e+00  7.9307529e-01
2.755615707e+00  7.9312827e-01
2.755634078e+00  7.9315673e-01
2.755652449e+00  7.9317136e-01
2.755670820e+00  7.9317863e-01
2.755689191e+00  7.9318218e-01
2.755707562e+00  7.9318391e-01
2.755725934e+00  7.9318476e-01
2.755744305e+00  7.9318519e-01
2.755762677e+00  7.9318540e-01
2.755781049e+00  7.9318544e-01
2.755799421e+00  7.9318538e-01
2.755817793e+00  7.9318525e-01
2.755836165e+00  7.9318503e-01
2.755854537e+00  7.9318475e-01
2.755872909e+00  7.9318438e-01
2.755891282e+00  7.9318393e-01
2.755909654e+00  7.9318338e-01
2.755928027e+00  7.9318269e-01
2.755946400e+00  7.9318183e-01
2.755964773e+00  7.9318068e-01
2.755983146e+00  7.9317905e-01
2.756001519e+00  7.9317650e-01
2.756019893e+00  7.9317249e-01
2.756038266e+00  7.9316593e-01
2.756056640e+00  7.9315510e-01
2.756075013e+00  7.9313729e-01
2.756093387e+00  7.9310828e-01
2.756111761e+00  7.9306147e-01
2.756130135e+00  7.9298681e-01
2.756148509e+00  7.9286933e-01
2.756166884e+00  7.9268785e-01
2.756185258e+00  7.9241472e-01
2.756203633e+00  7.9201765e-01
2.756222007e+00  7.9146520e-01
2.756240382e+00  7.9073612e-01
2.756258757e+00  7.8983165e-01
2.756277132e+00  7.8878730e-01
2.756295507e+00  7.8767921e-01
2.756313883e+00  7.8662020e-01
2.756332258e+00  7.8574328e-01
2.756350634e+00  7.8517496e-01
2.756369009e+00  7.8500541e-01
2.756387385e+00  7.8526526e-01
2.756405761e+00  7.8591697e-01
2.756424137e+00  7.8686424e-01
2.756442513e+00  7.8797594e-01
2.756460890e+00  7.8911632e-01
2.756479266e+00  7.9017190e-01
2.756497643e+00  7.9106786e-01
2.756516019e+00  7.9177181e-01
2.756534396e+00  7.9228689e-01
2.756552773e+00  7.9263943e-01
2.756571150e+00  7.9286594e-01
2.756589527e+00  7.9300302e-01
2.756607904e+00  7.9308147e-01
2.756626282e+00  7.9312415e-01
2.756644659e+00  7.9314639e-01
2.756663037e+00  7.9315764e-01
2.756681415e+00  7.9316326e-01
2.756699792e+00  7.9316611e-01
2.756718170e+00  7.9316762e-01
2.756736549e+00  7.9316845e-01
2.756754927e+00  7.9316896e-01
2.756773305e+00  7.9316919e-01
2.756791684e+00  7.9316928e-01
2.756810062e+00  7.9316927e-01
2.756828441e+00  7.9316915e-01
2.756846820e+00  7.9316894e-01
2.756865199e+00  7.9316864e-01
2.756883578e+00  7.9316825e-01
2.756901957e+00  7.9316777e-01
2.756920337e+00  7.9316719e-01
2.756938716e+00  7.9316651e-01
2.756957096e+00  7.9316571e-01
2.756975475e+00  7.9316477e-01
2.756993855e+00  7.9316366e-01
2.757012235e+00  7.9316221e-01
2.757030615e+00  7.9316032e-01
2.757048995e+00  7.9315758e-01
2.757067376e+00  7.9315310e-01
2.757085756e+00  7.9314505e-01
2.757104137e+00  7.9312981e-01
2.757122517e+00  7.9310057e-01
2.757140898e+00  7.9304539e-01
2.757159279e+00  7.9294497e-01
2.757177660e+00  7.9277062e-01
2.757196041e+00  7.9248387e-01
2.757214423e+00  7.9203915e-01
2.757232804e+00  7.9139129e-01
2.757251186e+00  7.9050820e-01
2.757269567e+00  7.8938700e-01
2.757287949e+00  7.8806940e-01
2.757306331e+00  7.8664981e-01
2.757324713e+00  7.8527045e-01
2.757343095e+00  7.8410051e-01
2.757361478e+00  7.8330245e-01
2.757379860e+00  7.8299454e-01
2.757398243e+00  7.8322129e-01
2.757416625e+00  7.8394239e-01
2.757435008e+00  7.8504381e-01
2.757453391e+00  7.8636715e-01
2.757471774e+00  7.8774684e-01
2.757490157e+00  7.8904318e-01
2.757508540e+00  7.9016258e-01
2.757526924e+00  7.9106214e-01
2.757545307e+00  7.9174146e-01
2.757563691e+00  7.9222783e-01
2.757582075e+00  7.9256091e-01
2.757600458e+00  7.9278110e-01
2.757618842e+00  7.9292285e-01
2.757637227e+00  7.9301237e-01
2.757655611e+00  7.9306810e-01
2.757673995e+00  7.9310235e-01
2.757692380e+00  7.9312312e-01
2.757710764e+00  7.9313552e-01
2.757729149e+00  7.9314281e-01
2.757747534e+00  7.9314703e-01
2.757765919e+00  7.9314948e-01
2.757784304e+00  7.9315082e-01
2.757802689e+00  7.9315156e-01
2.757821075e+00  7.9315195e-01
2.757839460e+00  7.9315210e-01
2.757857846e+00  7.9315208e-01
2.757876231e+00  7.9315193e-01
2.757894617e+00  7.9315166e-01
2.757913003e+00  7.9315127e-01
2.757931389e+00  7.9315076e-01
2.757949775e+00  7.9315014e-01
2.757968162e+00  7.9314938e-01
2.757986548e+00  7.9314847e-01
2.758004935e+00  7.9314738e-01
2.758023322e+00  7.9314607e-01
2.758041708e+00  7.9314434e-01
2.758060095e+00  7.9314209e-01
2.758078482e+00  7.9313881e-01
2.758096870e+00  7.9313350e-01
2.758115257e+00  7.9312404e-01
2.758133644e+00  7.9310625e-01
2.758152032e+00  7.9307223e-01
2.758170420e+00  7.9300813e-01
2.758188807e+00  7.9289145e-01
2.758207195e+00  7.9268863e-01
2.758225583e+00  7.9235443e-01
2.758243972e+00  7.9183497e-01
2.758262360e+00  7.9107636e-01
2.758280748e+00  7.9003950e-01
2.758299137e+00  7.8871926e-01
2.758317525e+00  7.8716295e-01
2.758335914e+00  7.8548074e-01
2.758354303e+00  7.8384063e-01
2.758372692e+00  7.8244462e-01
2.758391081e+00  7.8148904e-01
2.758409471e+00  7.8111943e-01
2.758427860e+00  7.8139415e-01
2.758446249e+00  7.8226918e-01
2.758464639e+00  7.8360972e-01
2.758483029e+00  7.8522416e-01
2.758501419e+00  7.8690879e-01
2.758519809e+00  7.8848888e-01
2.758538199e+00  7.8984497e-01
2.758556589e+00  7.9092040e-01
2.758574980e+00  7.9171262e-01
2.758593370e+00  7.9225554e-01
2.758611761e+00  7.9260017e-01
2.758630151e+00  7.9279937e-01
2.758648542e+00  7.9289872e-01
2.758666933e+00  7.9293333e-01
2.758685324e+00  7.9292850e-01
2.758703716e+00  7.9290224e-01
2.758722107e+00  7.9286783e-01
2.758740498e+00  7.9283543e-01
2.758758890e+00  7.9281276e-01
2.758777282e+00  7.9280490e-01
2.758795674e+00  7.9281399e-01
2.758814066e+00  7.9283891e-01
2.758832458e+00  7.9287616e-01
2.758850850e+00  7.9292057e-01
2.758869242e+00  7.9296662e-01
2.758887635e+00  7.9300962e-01
2.758906027e+00  7.9304635e-01
2.758924420e+00  7.9307534e-01
2.758942813e+00  7.9309656e-01
2.758961206e+00  7.9311100e-01
2.758979599e+00  7.9312008e-01
2.758997992e+00  7.9312526e-01
2.759016385e+00  7.9312779e-01
2.759034779e+00  7.9312861e-01
2.759053172e+00  7.9312832e-01
2.759071566e+00  7.9312729e-01
2.759089960e+00  7.9312552e-01
2.759108354e+00  7.9312301e-01
2.759126748e+00  7.9311930e-01
2.759145142e+00  7.9311330e-01
2.759163536e+00  7.9310273e-01
2.759181931e+00  7.9308300e-01
2.759200325e+00  7.9304545e-01
2.759218720e+00  7.9297484e-01
2.759237115e+00  7.9284631e-01
2.759255510e+00  7.9262261e-01
2.759273905e+00  7.9225318e-01
2.759292300e+00  7.9167726e-01
2.759310695e+00  7.9083323e-01
2.759329091e+00  7.8967488e-01
2.759347486e+00  7.8819292e-01
2.759365882e+00  7.8643621e-01
2.759384278e+00  7.8452449e-01
2.759402673e+00  7.8264418e-01
2.759421069e+00  7.8102302e-01
2.759439466e+00  7.7988622e-01
2.759457862e+00  7.7940538e-01
2.759476258e+00  7.7965594e-01
2.759494655e+00  7.8059775e-01
2.759513051e+00  7.8208552e-01
2.759531448e+00  7.8390570e-01
2.759549845e+00  7.8582650e-01
2.759568242e+00  7.8764538e-01
2.759586639e+00  7.8922063e-01
2.759605036e+00  7.9048197e-01
2.759623434e+00  7.9142224e-01
2.759641831e+00  7.9207805e-01
2.759660229e+00  7.9250774e-01
2.759678627e+00  7.9277329e-01
2.759697024e+00  7.9292876e-01
2.759715422e+00  7.9301554e-01
2.759733821e+00  7.9306216e-01
2.759752219e+00  7.9308659e-01
2.759770617e+00  7.9309933e-01
2.759789016e+00  7.9310605e-01
2.759807414e+00  7.9310958e-01
2.759825813e+00  7.9311116e-01
2.759844212e+00  7.9311112e-01
2.759862611e+00  7.9310904e-01
2.759881010e+00  7.9310424e-01
2.759899409e+00  7.9309560e-01
2.759917808e+00  7.9308171e-01
2.759936208e+00  7.9306119e-01
2.759954607e+00  7.9303309e-01
2.759973007e+00  7.9299740e-01
2.759991407e+00  7.9295553e-01
2.760009807e+00  7.9291058e-01
2.760028207e+00  7.9286711e-01
2.760046607e+00  7.9283051e-01
2.760065007e+00  7.9280589e-01
2.760083408e+00  7.9279689e-01
2.760101808e+00  7.9280477e-01
2.760120209e+00  7.9282804e-01
2.760138610e+00  7.9286287e-01
2.760157011e+00  7.9290384e-01
2.760175412e+00  7.9294543e-01
2.760193813e+00  7.9298259e-01
2.760212214e+00  7.9301114e-01
2.760230616e+00  7.9302737e-01
2.760249017e+00  7.9302651e-01
2.760267419e+00  7.9300046e-01
2.760285821e+00  7.9293452e-01
2.760304223e+00  7.9280376e-01
2.760322625e+00  7.9256972e-01
2.760341027e+00  7.9217918e-01
2.760359429e+00  7.9156724e-01
2.760377831e+00  7.9066700e-01
2.760396234e+00  7.8942691e-01
2.760414637e+00  7.8783385e-01
2.760433039e+00  7.8593646e-01
2.760451442e+00  7.8385974e-01
2.760469845e+00  7.8180201e-01
2.760488248e+00  7.8000885e-01
2.760506652e+00  7.7872680e-01
2.760525055e+00  7.7814799e-01
2.760543458e+00  7.7836287e-01
2.760561862e+00  7.7933697e-01
2.760580266e+00  7.8091995e-01
2.760598670e+00  7.8288368e-01
2.760617074e+00  7.8497604e-01
2.760635478e+00  7.8697303e-01
2.760653882e+00  7.8871476e-01
2.760672286e+00  7.9011863e-01
2.760690691e+00  7.9117187e-01
2.760709095e+00  7.9191112e-01
2.760727500e+00  7.9239856e-01
2.760745905e+00  7.9270172e-01
2.760764310e+00  7.9288039e-01
2.760782715e+00  7.9298081e-01
2.760801120e+00  7.9303515e-01
2.760819526e+00  7.9306390e-01
2.760837931e+00  7.9307912e-01
2.760856337e+00  7.9308743e-01
2.760874742e+00  7.9309228e-01
2.760893148e+00  7.9309534e-01
2.760911554e+00  7.9309748e-01
2.760929960e+00  7.9309896e-01
2.760948367e+00  7.9310004e-01
2.760966773e+00  7.9310084e-01
2.760985179e+00  7.9310140e-01
2.761003586e+00  7.9310175e-01
2.761021993e+00  7.9310193e-01
2.761040399e+00  7.9310193e-01
2.761058806e+00  7.9310177e-01
2.761077213e+00  7.9310143e-01
2.761095621e+00  7.9310089e-01
2.761114028e+00  7.9310009e-01
2.761132435e+00  7.9309889e-01
2.761150843e+00  7.9309710e-01
2.761169250e+00  7.9309431e-01
2.761187658e+00  7.9308994e-01
2.761206066e+00  7.9308308e-01
2.761224474e+00  7.9307256e-01
2.761242882e+00  7.9305680e-01
2.761261291e+00  7.9303438e-01
2.761279699e+00  7.9300384e-01
2.761298108e+00  7.9296396e-01
2.761316516e+00  7.9291354e-01
2.761334925e+00  7.9285034e-01
2.761353334e+00  7.9276897e-01
2.761371743e+00  7.9265747e-01
2.761390152e+00  7.9249283e-01
2.761408561e+00  7.9223685e-01
2.761426971e+00  7.9183413e-01
2.761445380e+00  7.9121504e-01
2.761463790e+00  7.9030629e-01
2.761482200e+00  7.8904977e-01
2.761500610e+00  7.8742775e-01
2.761519020e+00  7.8548787e-01
2.761537430e+00  7.8335871e-01
2.761555840e+00  7.8124634e-01
2.761574250e+00  7.7940663e-01
2.761592661e+00  7.7809636e-01
2.761611071e+00  7.7751520e-01
2.761629482e+00  7.7775655e-01
2.761647893e+00  7.7878357e-01
2.761666304e+00  7.8043914e-01
2.761684715e+00  7.8248582e-01
2.761703126e+00  7.8466192e-01
2.761721538e+00  7.8673560e-01
2.761739949e+00  7.8854198e-01
2.761758361e+00  7.8999649e-01
2.761776773e+00  7.9108682e-01
2.761795184e+00  7.9185163e-01
2.761813596e+00  7.9235574e-01
