# Wave/freq Total
4.500000000e+00  2.4141825e-04
4.500030000e+00  2.4164556e-04
4.500060000e+00  2.4192482e-04
4.500090001e+00  2.4225496e-04
4.500120001e+00  2.4263134e-04
4.500150002e+00  2.4304627e-04
4.500180003e+00  2.4348983e-04
4.500210004e+00  2.4395113e-04
4.500240006e+00  2.4441954e-04
4.500270007e+00  2.4488581e-04
4.500300009e+00  2.4534282e-04
4.500330011e+00  2.4578597e-04
4.500360013e+00  2.4621293e-04
4.500390016e+00  2.4662368e-04
4.500420018e+00  2.4701911e-04
4.500450021e+00  2.4740024e-04
4.500480024e+00  2.4776660e-04
4.500510027e+00  2.4811429e-04
4.500540031e+00  2.4843317e-04
4.500570034e+00  2.4870346e-04
4.500600038e+00  2.4889194e-04
4.500630042e+00  2.4894891e-04
4.500660046e+00  2.4880802e-04
4.500690051e+00  2.4839187e-04
4.500720055e+00  2.4762596e-04
4.500750060e+00  2.4646158e-04
4.500780065e+00  2.4490467e-04
4.500810070e+00  2.4304255e-04
4.500840076e+00  2.4105752e-04
4.500870081e+00  2.3921647e-04
4.500900087e+00  2.3783213e-04
4.500930093e+00  2.3720137e-04
4.500960099e+00  2.3753699e-04
4.500990106e+00  2.3891436e-04
4.501020112e+00  2.4125150e-04
4.501050119e+00  2.4432970e-04
4.501080126e+00  2.4784717e-04
4.501110133e+00  2.5148753e-04
4.501140141e+00  2.5498118e-04
4.501170148e+00  2.5814375e-04
4.501200156e+00  2.6088608e-04
4.501230164e+00  2.6320047e-04
4.501260172e+00  2.6513401e-04
4.501290181e+00  2.6676013e-04
4.501320189e+00  2.6815613e-04
4.501350198e+00  2.6938964e-04
4.501380207e+00  2.7051332e-04
4.501410216e+00  2.7156499e-04
4.501440226e+00  2.7257043e-04
4.501470235e+00  2.7354678e-04
4.501500245e+00  2.7450555e-04
4.501530255e+00  2.7545470e-04
4.501560265e+00  2.7640015e-04
4.501590276e+00  2.7734671e-04
4.501620286e+00  2.7829833e-04
4.501650297e+00  2.7925892e-04
4.501680308e+00  2.8023191e-04
4.501710319e+00  2.8122029e-04
4.501740331e+00  2.8222643e-04
4.501770342e+00  2.8325184e-04
4.501800354e+00  2.8429702e-04
4.501830366e+00  2.8536144e-04
4.501860378e+00  2.8644366e-04
4.501890391e+00  2.8754157e-04
4.501920403e+00  2.8865269e-04
4.501950416e+00  2.8977444e-04
4.501980429e+00  2.9090440e-04
4.502010442e+00  2.9204040e-04
4.502040456e+00  2.9318059e-04
4.502070469e+00  2.9432332e-04
4.502100483e+00  2.9546716e-04
4.502130497e+00  2.9661077e-04
4.502160511e+00  2.9775291e-04
4.502190526e+00  2.9889248e-04
4.502220540e+00  3.0002861e-04
4.502250555e+00  3.0116070e-04
4.502280570e+00  3.0228858e-04
4.502310585e+00  3.0341244e-04
4.502340601e+00  3.0453287e-04
4.502370616e+00  3.0565073e-04
4.502400632e+00  3.0676701e-04
4.502430648e+00  3.0788270e-04
4.502460664e+00  3.0899860e-04
4.502490681e+00  3.1011528e-04
4.502520697e+00  3.1123294e-04
4.502550714e+00  3.1235138e-04
4.502580731e+00  3.1347006e-04
4.502610748e+00  3.1458811e-04
4.502640766e+00  3.1570441e-04
4.502670783e+00  3.1681781e-04
4.502700801e+00  3.1792722e-04
4.502730819e+00  3.1903180e-04
4.502760837e+00  3.2013110e-04
4.502790856e+00  3.2122510e-04
4.502820874e+00  3.2231415e-04
4.502850893e+00  3.2339889e-04
4.502880912e+00  3.2447991e-04
4.502910931e+00  3.2555752e-04
4.502940951e+00  3.2663126e-04
4.502970970e+00  3.2769950e-04
4.503000990e+00  3.2875898e-04
4.503031010e+00  3.2980446e-04
4.503061030e+00  3.3082849e-04
4.503091051e+00  3.3182155e-04
4.503121071e+00  3.3277254e-04
4.503151092e+00  3.3366969e-04
4.503181113e+00  3.3450190e-04
4.503211134e+00  3.3526010e-04
4.503241156e+00  3.3593855e-04
4.503271177e+00  3.3653570e-04
4.503301199e+00  3.3705433e-04
4.503331221e+00  3.3750117e-04
4.503361244e+00  3.3788591e-04
4.503391266e+00  3.3822011e-04
4.503421289e+00  3.3851623e-04
4.503451311e+00  3.3878705e-04
4.503481334e+00  3.3904561e-04
4.503511358e+00  3.3930548e-04
4.503541381e+00  3.3958130e-04
4.503571405e+00  3.3988907e-04
4.503601428e+00  3.4024609e-04
4.503631452e+00  3.4067023e-04
4.503661477e+00  3.4117861e-04
4.503691501e+00  3.4178595e-04
4.503721526e+00  3.4250287e-04
4.503751550e+00  3.4333468e-04
4.503781575e+00  3.4428090e-04
4.503811601e+00  3.4533563e-04
4.503841626e+00  3.4648871e-04
4.503871652e+00  3.4772720e-04
4.503901677e+00  3.4903683e-04
4.503931703e+00  3.5040299e-04
4.503961730e+00  3.5181117e-04
4.503991756e+00  3.5324676e-04
4.504021783e+00  3.5469462e-04
4.504051810e+00  3.5613854e-04
4.504081837e+00  3.5756116e-04
4.504111864e+00  3.5894439e-04
4.504141891e+00  3.6027040e-04
4.504171919e+00  3.6152308e-04
4.504201947e+00  3.6268960e-04
4.504231975e+00  3.6376160e-04
4.504262003e+00  3.6473587e-04
4.504292031e+00  3.6561414e-04
4.504322060e+00  3.6640218e-04
4.504352089e+00  3.6710857e-04
4.504382118e+00  3.6774326e-04
4.504412147e+00  3.6831662e-04
4.504442176e+00  3.6883893e-04
4.504472206e+00  3.6932058e-04
4.504502236e+00  3.6977264e-04
4.504532266e+00  3.7020765e-04
4.504562296e+00  3.7064023e-04
4.504592326e+00  3.7108726e-04
4.504622357e+00  3.7156728e-04
4.504652388e+00  3.7209927e-04
4.504682419e+00  3.7270077e-04
4.504712450e+00  3.7338579e-04
4.504742481e+00  3.7416303e-04
4.504772513e+00  3.7503487e-04
4.504802545e+00  3.7599737e-04
4.504832577e+00  3.7704135e-04
4.504862609e+00  3.7815421e-04
4.504892642e+00  3.7932190e-04
4.504922674e+00  3.8053069e-04
4.504952707e+00  3.8176820e-04
4.504982740e+00  3.8302374e-04
4.505012773e+00  3.8428809e-04
4.505042807e+00  3.8555301e-04
4.505072840e+00  3.8681078e-04
4.505102874e+00  3.8805407e-04
4.505132908e+00  3.8927606e-04
4.505162942e+00  3.9047085e-04
4.505192977e+00  3.9163394e-04
4.505223011e+00  3.9276256e-04
4.505253046e+00  3.9385578e-04
4.505283081e+00  3.9491438e-04
4.505313116e+00  3.9594045e-04
4.505343152e+00  3.9693693e-04
4.505373187e+00  3.9790721e-04
4.505403223e+00  3.9885493e-04
4.505433259e+00  3.9978393e-04
4.505463296e+00  4.0069846e-04
4.505493332e+00  4.0160335e-04
4.505523369e+00  4.0250418e-04
4.505553405e+00  4.0340727e-04
4.505583442e+00  4.0431939e-04
4.505613480e+00  4.0524731e-04
4.505643517e+00  4.0619720e-04
4.505673555e+00  4.0717395e-04
4.505703593e+00  4.0818079e-04
4.505733631e+00  4.0921898e-04
4.505763669e+00  4.1028800e-04
4.505793707e+00  4.1138594e-04
4.505823746e+00  4.1251010e-04
4.505853785e+00  4.1365762e-04
4.505883824e+00  4.1482590e-04
4.505913863e+00  4.1601272e-04
4.505943902e+00  4.1721597e-04
4.505973942e+00  4.1843305e-04
4.506003982e+00  4.1966018e-04
4.506034022e+00  4.2089180e-04
4.506064062e+00  4.2212042e-04
4.506094102e+00  4.2333687e-04
4.506124143e+00  4.2453110e-04
4.506154184e+00  4.2569324e-04
4.506184225e+00  4.2681454e-04
4.506214266e+00  4.2788814e-04
4.506244308e+00  4.2890924e-04
4.506274349e+00  4.2987485e-04
4.506304391e+00  4.3078321e-04
4.506334433e+00  4.3163313e-04
4.506364475e+00  4.3242336e-04
4.506394518e+00  4.3315229e-04
4.506424560e+00  4.3381772e-04
4.506454603e+00  4.3441659e-04
4.506484646e+00  4.3494557e-04
4.506514689e+00  4.3539940e-04
4.506544733e+00  4.3577007e-04
4.506574777e+00  4.3604425e-04
4.506604820e+00  4.3619917e-04
4.506634864e+00  4.3619683e-04
4.506664909e+00  4.3597648e-04
4.506694953e+00  4.3544700e-04
4.506724998e+00  4.3448198e-04
4.506755042e+00  4.3292277e-04
4.506785088e+00  4.3059570e-04
4.506815133e+00  4.2734840e-04
4.506845178e+00  4.2310517e-04
4.506875224e+00  4.1793237e-04
4.506905270e+00  4.1209484e-04
4.506935316e+00  4.0607787e-04
4.506965362e+00  4.0055256e-04
4.506995408e+00  3.9627719e-04
4.507025455e+00  3.9395057e-04
4.507055502e+00  3.9405592e-04
4.507085549e+00  3.9674392e-04
4.507115596e+00  4.0179448e-04
4.507145644e+00  4.0867061e-04
4.507175691e+00  4.1664572e-04
4.507205739e+00  4.2496160e-04
4.507235787e+00  4.3296896e-04
4.507265835e+00  4.4021530e-04
4.507295884e+00  4.4646839e-04
4.507325932e+00  4.5168640e-04
4.507355981e+00  4.5595836e-04
4.507386030e+00  4.5943987e-04
4.507416080e+00  4.6230136e-04
4.507446129e+00  4.6469606e-04
4.507476179e+00  4.6674611e-04
4.507506228e+00  4.6854154e-04
4.507536278e+00  4.7014550e-04
4.507566329e+00  4.7160142e-04
4.507596379e+00  4.7293928e-04
4.507626430e+00  4.7418035e-04
4.507656481e+00  4.7534025e-04
4.507686532e+00  4.7643089e-04
4.507716583e+00  4.7746113e-04
4.507746634e+00  4.7843852e-04
4.507776686e+00  4.7936884e-04
4.507806738e+00  4.8025680e-04
4.507836790e+00  4.8110646e-04
4.507866842e+00  4.8192158e-04
4.507896895e+00  4.8270606e-04
4.507926947e+00  4.8346433e-04
4.507957000e+00  4.8420160e-04
4.507987053e+00  4.8492402e-04
4.508017106e+00  4.8563856e-04
4.508047160e+00  4.8635273e-04
4.508077213e+00  4.8707420e-04
4.508107267e+00  4.8781035e-04
4.508137321e+00  4.8856790e-04
4.508167376e+00  4.8935276e-04
4.508197430e+00  4.9017004e-04
4.508227485e+00  4.9102420e-04
4.508257540e+00  4.9191935e-04
4.508287595e+00  4.9285922e-04
4.508317650e+00  4.9384712e-04
4.508347705e+00  4.9488540e-04
4.508377761e+00  4.9597484e-04
4.508407817e+00  4.9711390e-04
4.508437873e+00  4.9829819e-04
4.508467929e+00  4.9952033e-04
4.508497986e+00  5.0077023e-04
4.508528042e+00  5.0203583e-04
4.508558099e+00  5.0330411e-04
4.508588156e+00  5.0456224e-04
4.508618213e+00  5.0579845e-04
4.508648271e+00  5.0700264e-04
4.508678329e+00  5.0816651e-04
4.508708386e+00  5.0928339e-04
4.508738444e+00  5.1034780e-04
4.508768503e+00  5.1135509e-04
4.508798561e+00  5.1230128e-04
4.508828620e+00  5.1318334e-04
4.508858679e+00  5.1399978e-04
4.508888738e+00  5.1475139e-04
4.508918797e+00  5.1544191e-04
4.508948856e+00  5.1607842e-04
4.508978916e+00  5.1667109e-04
4.509008976e+00  5.1723259e-04
4.509039036e+00  5.1777698e-04
4.509069096e+00  5.1831860e-04
4.509099157e+00  5.1887100e-04
4.509129217e+00  5.1944630e-04
4.509159278e+00  5.2005491e-04
4.509189339e+00  5.2070577e-04
4.509219401e+00  5.2140674e-04
4.509249462e+00  5.2216502e-04
4.509279524e+00  5.2298742e-04
4.509309586e+00  5.2388012e-04
4.509339648e+00  5.2484825e-04
4.509369710e+00  5.2589508e-04
4.509399772e+00  5.2702145e-04
4.509429835e+00  5.2822537e-04
4.509459898e+00  5.2950218e-04
4.509489961e+00  5.3084515e-04
4.509520024e+00  5.3224639e-04
4.509550088e+00  5.3369788e-04
4.509580151e+00  5.3519238e-04
4.509610215e+00  5.3672404e-04
4.509640279e+00  5.3828882e-04
4.509670344e+00  5.3988450e-04
4.509700408e+00  5.4151059e-04
4.509730473e+00  5.4316805e-04
4.509760538e+00  5.4485887e-04
4.509790603e+00  5.4658548e-04
4.509820668e+00  5.4835010e-04
4.509850733e+00  5.5015398e-04
4.509880799e+00  5.5199671e-04
4.509910865e+00  5.5387576e-04
4.509940931e+00  5.5578623e-04
4.509970997e+00  5.5772099e-04
4.510001064e+00  5.5967110e-04
4.510031130e+00  5.6162639e-04
4.510061197e+00  5.6357603e-04
4.510091264e+00  5.6550890e-04
4.510121332e+00  5.6741372e-04
4.510151399e+00  5.6927879e-04
4.510181467e+00  5.7109172e-04
4.510211535e+00  5.7283909e-04
4.510241603e+00  5.7450658e-04
4.510271671e+00  5.7607961e-04
4.510301739e+00  5.7754465e-04
4.510331808e+00  5.7889095e-04
4.510361877e+00  5.8011220e-04
4.510391946e+00  5.8120786e-04
4.510422015e+00  5.8218359e-04
4.510452085e+00  5.8305068e-04
4.510482155e+00  5.8382451e-04
4.510512224e+00  5.8452251e-04
4.510542295e+00  5.8516199e-04
4.510572365e+00  5.8575842e-04
4.510602435e+00  5.8632445e-04
4.510632506e+00  5.8686992e-04
4.510662577e+00  5.8740290e-04
4.510692648e+00  5.8793136e-04
4.510722719e+00  5.8846523e-04
4.510752791e+00  5.8901805e-04
4.510782862e+00  5.8960750e-04
4.510812934e+00  5.9025436e-04
4.510843006e+00  5.9097976e-04
4.510873079e+00  5.9180139e-04
4.510903151e+00  5.9272952e-04
4.510933224e+00  5.9376448e-04
4.510963297e+00  5.9489622e-04
4.510993370e+00  5.9610641e-04
4.511023443e+00  5.9737239e-04
4.511053517e+00  5.9867180e-04
4.511083590e+00  5.9998663e-04
4.511113664e+00  6.0130569e-04
4.511143738e+00  6.0262535e-04
4.511173813e+00  6.0394876e-04
4.511203887e+00  6.0528403e-04
4.511233962e+00  6.0664216e-04
4.511264037e+00  6.0803498e-04
4.511294112e+00  6.0947337e-04
4.511324187e+00  6.1096584e-04
4.511354263e+00  6.1251763e-04
4.511384338e+00  6.1413020e-04
4.511414414e+00  6.1580126e-04
4.511444490e+00  6.1752524e-04
4.511474566e+00  6.1929408e-04
4.511504643e+00  6.2109803e-04
4.511534720e+00  6.2292636e-04
4.511564797e+00  6.2476762e-04
4.511594874e+00  6.2660960e-04
4.511624951e+00  6.2843888e-04
4.511655028e+00  6.3024033e-04
4.511685106e+00  6.3199682e-04
4.511715184e+00  6.3368946e-04
4.511745262e+00  6.3529849e-04
4.511775340e+00  6.3680486e-04
4.511805419e+00  6.3819228e-04
4.511835498e+00  6.3944916e-04
4.511865577e+00  6.4057018e-04
4.511895656e+00  6.4155690e-04
4.511925735e+00  6.4241737e-04
4.511955815e+00  6.4316481e-04
4.511985894e+00  6.4381588e-04
4.512015974e+00  6.4438887e-04
4.512046054e+00  6.4490244e-04
4.512076135e+00  6.4537499e-04
4.512106215e+00  6.4582481e-04
4.512136296e+00  6.4627054e-04
4.512166377e+00  6.4673168e-04
4.512196458e+00  6.4722864e-04
4.512226539e+00  6.4778199e-04
4.512256621e+00  6.4841083e-04
4.512286702e+00  6.4913052e-04
4.512316784e+00  6.4995027e-04
4.512346866e+00  6.5087107e-04
4.512376949e+00  6.5188460e-04
4.512407031e+00  6.5297333e-04
4.512437114e+00  6.5411164e-04
4.512467197e+00  6.5526781e-04
4.512497280e+00  6.5640593e-04
4.512527363e+00  6.5748755e-04
4.512557447e+00  6.5847237e-04
4.512587530e+00  6.5931810e-04
4.512617614e+00  6.5997917e-04
4.512647698e+00  6.6040562e-04
4.512677783e+00  6.6054136e-04
4.512707867e+00  6.6032139e-04
4.512737952e+00  6.5966961e-04
4.512768037e+00  6.5849496e-04
4.512798122e+00  6.5668574e-04
4.512828207e+00  6.5410172e-04
4.512858293e+00  6.5056506e-04
4.512888379e+00  6.4585339e-04
4.512918465e+00  6.3970211e-04
4.512948551e+00  6.3182567e-04
4.512978637e+00  6.2196815e-04
4.513008724e+00  6.0998801e-04
4.513038810e+00  5.9596997e-04
4.513068897e+00  5.8033952e-04
4.513098984e+00  5.6393951e-04
4.513129072e+00  5.4802361e-04
4.513159159e+00  5.3413499e-04
4.513189247e+00  5.2387292e-04
4.513219335e+00  5.1859325e-04
4.513249423e+00  5.1912302e-04
4.513279511e+00  5.2557688e-04
4.513309600e+00  5.3733479e-04
4.513339689e+00  5.5318822e-04
4.513369777e+00  5.7160572e-04
4.513399867e+00  5.9103435e-04
4.513429956e+00  6.1015246e-04
4.513460045e+00  6.2801883e-04
4.513490135e+00  6.4410576e-04
4.513520225e+00  6.5824076e-04
4.513550315e+00  6.7050013e-04
4.513580406e+00  6.8109639e-04
4.513610496e+00  6.9028784e-04
4.513640587e+00  6.9832086e-04
4.513670678e+00  7.0540263e-04
4.513700769e+00  7.1169536e-04
4.513730860e+00  7.1732204e-04
4.513760952e+00  7.2237644e-04
4.513791044e+00  7.2693291e-04
4.513821136e+00  7.3105417e-04
4.513851228e+00  7.3479654e-04
4.513881320e+00  7.3821265e-04
4.513911413e+00  7.4135275e-04
4.513941505e+00  7.4426506e-04
4.513971598e+00  7.4699405e-04
4.514001691e+00  7.4957972e-04
4.514031785e+00  7.5205666e-04
4.514061878e+00  7.5445376e-04
4.514091972e+00  7.5679453e-04
4.514122066e+00  7.5909805e-04
4.514152160e+00  7.6138015e-04
4.514182254e+00  7.6365451e-04
4.514212349e+00  7.6593348e-04
4.514242444e+00  7.6822823e-04
4.514272539e+00  7.7054853e-04
4.514302634e+00  7.7290221e-04
4.514332729e+00  7.7529463e-04
4.514362825e+00  7.7772845e-04
4.514392920e+00  7.8020375e-04
4.514423016e+00  7.8271849e-04
4.514453113e+00  7.8526902e-04
4.514483209e+00  7.8785054e-04
4.514513306e+00  7.9045719e-04
4.514543402e+00  7.9308176e-04
4.514573499e+00  7.9571517e-04
4.514603596e+00  7.9834589e-04
4.514633694e+00  8.0095964e-04
4.514663791e+00  8.0353959e-04
4.514693889e+00  8.0606718e-04
4.514723987e+00  8.0852351e-04
4.514754085e+00  8.1089113e-04
4.514784184e+00  8.1315579e-04
4.514814282e+00  8.1530771e-04
4.514844381e+00  8.1734218e-04
4.514874480e+00  8.1925929e-04
4.514904579e+00  8.2106305e-04
4.514934678e+00  8.2276013e-04
4.514964778e+00  8.2435881e-04
4.514994878e+00  8.2586838e-04
4.515024978e+00  8.2729919e-04
4.515055078e+00  8.2866313e-04
4.515085178e+00  8.2997440e-04
4.515115279e+00  8.3124999e-04
4.515145380e+00  8.3250972e-04
4.515175480e+00  8.3377548e-04
4.515205582e+00  8.3506995e-04
4.515235683e+00  8.3641480e-04
4.515265785e+00  8.3782893e-04
4.515295886e+00  8.3932706e-04
4.515325988e+00  8.4091899e-04
4.515356091e+00  8.4260956e-04
4.515386193e+00  8.4439937e-04
4.515416295e+00  8.4628576e-04
4.515446398e+00  8.4826377e-04
4.515476501e+00  8.5032689e-04
4.515506604e+00  8.5246744e-04
4.515536708e+00  8.5467681e-04
4.515566811e+00  8.5694585e-04
4.515596915e+00  8.5926556e-04
4.515627019e+00  8.6162810e-04
4.515657123e+00  8.6402774e-04
4.515687228e+00  8.6646130e-04
4.515717332e+00  8.6892773e-04
4.515747437e+00  8.7142672e-04
4.515777542e+00  8.7395684e-04
4.515807647e+00  8.7651377e-04
4.515837753e+00  8.7908952e-04
4.515867858e+00  8.8167277e-04
4.515897964e+00  8.8425049e-04
4.515928070e+00  8.8681003e-04
4.515958176e+00  8.8934119e-04
4.515988283e+00  8.9183753e-04
4.516018389e+00  8.9429690e-04
4.516048496e+00  8.9672102e-04
4.516078603e+00  8.9911464e-04
4.516108710e+00  9.0148444e-04
4.516138817e+00  9.0383808e-04
4.516168925e+00  9.0618334e-04
4.516199033e+00  9.0852755e-04
4.516229141e+00  9.1087718e-04
4.516259249e+00  9.1323755e-04
4.516289357e+00  9.1561280e-04
4.516319466e+00  9.1800594e-04
4.516349575e+00  9.2041900e-04
4.516379684e+00  9.2285330e-04
4.516409793e+00  9.2530965e-04
4.516439902e+00  9.2778849e-04
4.516470012e+00  9.3028989e-04
4.516500122e+00  9.3281337e-04
4.516530232e+00  9.3535777e-04
4.516560342e+00  9.3792091e-04
4.516590452e+00  9.4049957e-04
4.516620563e+00  9.4308948e-04
4.516650674e+00  9.4568553e-04
4.516680785e+00  9.4828215e-04
4.516710896e+00  9.5087372e-04
4.516741007e+00  9.5345500e-04
4.516771119e+00  9.5602141e-04
4.516801231e+00  9.5856918e-04
4.516831343e+00  9.6109533e-04
4.516861455e+00  9.6359745e-04
4.516891567e+00  9.6607360e-04
4.516921680e+00  9.6852222e-04
4.516951793e+00  9.7094224e-04
4.516981906e+00  9.7333336e-04
4.517012019e+00  9.7569654e-04
4.517042133e+00  9.7803440e-04
4.517072246e+00  9.8035158e-04
4.517102360e+00  9.8265478e-04
4.517132474e+00  9.8495250e-04
4.517162588e+00  9.8725449e-04
4.517192703e+00  9.8957105e-04
4.517222817e+00  9.9191222e-04
4.517252932e+00  9.9428726e-04
4.517283047e+00  9.9670424e-04
4.517313162e+00  9.9917011e-04
4.517343278e+00  1.0016909e-03
4.517373393e+00  1.0042719e-03
4.517403509e+00  1.0069180e-03
4.517433625e+00  1.0096331e-03
4.517463741e+00  1.0124195e-03
4.517493858e+00  1.0152771e-03
4.517523974e+00  1.0182021e-03
4.517554091e+00  1.0211861e-03
4.517584208e+00  1.0242164e-03
4.517614326e+00  1.0272758e-03
4.517644443e+00  1.0303439e-03
4.517674561e+00  1.0333989e-03
4.517704678e+00  1.0364189e-03
4.517734796e+00  1.0393833e-03
4.517764915e+00  1.0422740e-03
4.517795033e+00  1.0450750e-03
4.517825152e+00  1.0477726e-03
4.517855271e+00  1.0503544e-03
4.517885390e+00  1.0528087e-03
4.517915509e+00  1.0551245e-03
4.517945628e+00  1.0572921e-03
4.517975748e+00  1.0593038e-03
4.518005868e+00  1.0611558e-03
4.518035988e+00  1.0628493e-03
4.518066108e+00  1.0643909e-03
4.518096228e+00  1.0657925e-03
4.518126349e+00  1.0670701e-03
4.518156470e+00  1.0682418e-03
4.518186591e+00  1.0693258e-03
4.518216712e+00  1.0703384e-03
4.518246834e+00  1.0712929e-03
4.518276955e+00  1.0721988e-03
4.518307077e+00  1.0730619e-03
4.518337199e+00  1.0738854e-03
4.518367321e+00  1.0746694e-03
4.518397444e+00  1.0754122e-03
4.518427567e+00  1.0761088e-03
4.518457689e+00  1.0767504e-03
4.518487812e+00  1.0773227e-03
4.518517936e+00  1.0778041e-03
4.518548059e+00  1.0781651e-03
4.518578183e+00  1.0783669e-03
4.518608307e+00  1.0783627e-03
4.518638431e+00  1.0780975e-03
4.518668555e+00  1.0775098e-03
4.518698679e+00  1.0765316e-03
4.518728804e+00  1.0750890e-03
4.518758929e+00  1.0731011e-03
4.518789054e+00  1.0704790e-03
4.518819179e+00  1.0671230e-03
4.518849305e+00  1.0629213e-03
4.518879430e+00  1.0577468e-03
4.518909556e+00  1.0514554e-03
4.518939682e+00  1.0438850e-03
4.518969809e+00  1.0348535e-03
4.518999935e+00  1.0241576e-03
4.519030062e+00  1.0115720e-03
4.519060189e+00  9.9684740e-04
4.519090316e+00  9.7970882e-04
4.519120443e+00  9.5985575e-04
4.519150570e+00  9.3696737e-04
4.519180698e+00  9.1072066e-04
4.519210826e+00  8.8083111e-04
4.519240954e+00  8.4712736e-04
4.519271082e+00  8.0966600e-04
4.519301211e+00  7.6888042e-04
4.519331339e+00  7.2573774e-04
