# Wave/freq Total
4.000000000e+00  1.4499513e-22
4.000026667e+00  1.2098766e-22
4.000053334e+00  9.7394520e-23
4.000080001e+00  7.5447315e-23
4.000106668e+00  5.6135314e-23
4.000133335e+00  4.0233563e-23
4.000160003e+00  2.9274645e-23
4.000186670e+00  3.0147693e-23
4.000213338e+00  5.6643961e-23
4.000240006e+00  2.3822429e-22
4.000266675e+00  1.2125961e-21
4.000293343e+00  5.2390938e-21
4.000320012e+00  1.9546412e-20
4.000346681e+00  6.4522088e-20
4.000373350e+00  1.9247185e-19
4.000400019e+00  5.2930897e-19
4.000426688e+00  1.3622262e-18
4.000453358e+00  3.3150795e-18
4.000480027e+00  7.6744218e-18
4.000506697e+00  1.6975201e-17
4.000533367e+00  3.5951047e-17
4.000560037e+00  7.2923209e-17
4.000586708e+00  1.4172920e-16
4.000613378e+00  2.6401102e-16
4.000640049e+00  4.7147736e-16
4.000666720e+00  8.0738054e-16
4.000693391e+00  1.3261182e-15
4.000720062e+00  2.0897342e-15
4.000746734e+00  3.1603571e-15
4.000773406e+00  4.5884297e-15
4.000800077e+00  6.3978983e-15
4.000826749e+00  8.5710556e-15
4.000853422e+00  1.1036917e-14
4.000880094e+00  1.3667252e-14
4.000906766e+00  1.6283334e-14
4.000933439e+00  1.8674123e-14
4.000960112e+00  2.0623655e-14
4.000986785e+00  2.1942705e-14
4.001013458e+00  2.2498323e-14
4.001040132e+00  2.2235039e-14
4.001066805e+00  2.1183319e-14
4.001093479e+00  1.9453759e-14
4.001120153e+00  1.7218519e-14
4.001146827e+00  1.4684146e-14
4.001173502e+00  1.2061356e-14
4.001200176e+00  9.5375765e-15
4.001226851e+00  7.2569024e-15
4.001253526e+00  5.3100752e-15
4.001280201e+00  3.7346382e-15
4.001306876e+00  2.5232635e-15
4.001333551e+00  1.6368984e-15
4.001360227e+00  1.0191062e-15
4.001386902e+00  6.0864717e-16
4.001413578e+00  3.4856681e-16
4.001440254e+00  1.9134612e-16
4.001466931e+00  1.0064945e-16
4.001493607e+00  5.0710280e-17
4.001520284e+00  2.4460634e-17
4.001546961e+00  1.1288442e-17
4.001573638e+00  4.9805793e-18
4.001600315e+00  2.0975613e-18
4.001626992e+00  8.3625347e-19
4.001653670e+00  3.1318494e-19
4.001680347e+00  1.0858964e-19
4.001707025e+00  3.4128974e-20
4.001733703e+00  9.4563231e-21
4.001760381e+00  2.2424256e-21
4.001787060e+00  5.5457541e-22
4.001813738e+00  7.3280880e-22
4.001840417e+00  2.8251485e-21
4.001867096e+00  9.9498484e-21
4.001893775e+00  2.8568213e-20
4.001920454e+00  8.2155114e-20
4.001947134e+00  2.4336566e-19
4.001973814e+00  7.0632164e-19
4.002000493e+00  1.9789139e-18
4.002027173e+00  5.3204004e-18
4.002053854e+00  1.3934654e-17
4.002080534e+00  3.5227962e-17
4.002107214e+00  8.5987350e-17
4.002133895e+00  2.0280574e-16
4.002160576e+00  4.6252713e-16
4.002187257e+00  1.0205109e-15
4.002213938e+00  2.1789157e-15
4.002240620e+00  4.5025922e-15
4.002267301e+00  9.0057111e-15
4.002293983e+00  1.7435933e-14
4.002320665e+00  3.2681723e-14
4.002347347e+00  5.9318023e-14
4.002374030e+00  1.0428175e-13
4.002400712e+00  1.7762743e-13
4.002427395e+00  2.9328814e-13
4.002454078e+00  4.6962309e-13
4.002480761e+00  7.2960827e-13
4.002507444e+00  1.1003986e-12
4.002534127e+00  1.6120722e-12
4.002560811e+00  2.2954435e-12
4.002587495e+00  3.1790342e-12
4.002614178e+00  4.2855142e-12
4.002640863e+00  5.6281999e-12
4.002667547e+00  7.2084010e-12
4.002694231e+00  9.0144537e-12
4.002720916e+00  1.1023064e-11
4.002747601e+00  1.3203061e-11
4.002774286e+00  1.5520900e-11
4.002800971e+00  1.7946442e-11
4.002827656e+00  2.0457079e-11
4.002854342e+00  2.3038330e-11
4.002881027e+00  2.5679989e-11
4.002907713e+00  2.8368305e-11
4.002934399e+00  3.1076268e-11
4.002961086e+00  3.3755053e-11
4.002987772e+00  3.6329641e-11
4.003014459e+00  3.8700527e-11
4.003041145e+00  4.0751631e-11
4.003067832e+00  4.2362777e-11
4.003094519e+00  4.3424034e-11
4.003121207e+00  4.3849031e-11
4.003147894e+00  4.3585089e-11
4.003174582e+00  4.2619050e-11
4.003201270e+00  4.0978681e-11
4.003227958e+00  3.8730191e-11
4.003254646e+00  3.5972601e-11
4.003281334e+00  3.2829736e-11
4.003308023e+00  2.9440590e-11
4.003334711e+00  2.5948859e-11
4.003361400e+00  2.2492599e-11
4.003388089e+00  1.9194994e-11
4.003414779e+00  1.6157132e-11
4.003441468e+00  1.3453309e-11
4.003468158e+00  1.1128997e-11
4.003494848e+00  9.2011898e-12
4.003521538e+00  7.6607248e-12
4.003548228e+00  6.4762168e-12
4.003574918e+00  5.5992307e-12
4.003601608e+00  4.9704453e-12
4.003628299e+00  4.5263167e-12
4.003654990e+00  4.2055603e-12
4.003681681e+00  3.9546185e-12
4.003708372e+00  3.7314043e-12
4.003735064e+00  3.5069279e-12
4.003761755e+00  3.2648884e-12
4.003788447e+00  2.9997173e-12
4.003815139e+00  2.7137781e-12
4.003841831e+00  2.4144069e-12
4.003868523e+00  2.1112899e-12
4.003895216e+00  1.8144305e-12
4.003921908e+00  1.5327449e-12
4.003948601e+00  1.2732351e-12
4.003975294e+00  1.0406028e-12
4.004001987e+00  8.3724642e-13
4.004028681e+00  6.6351169e-13
4.004055374e+00  5.1812458e-13
4.004082068e+00  3.9870573e-13
4.004108762e+00  3.0226553e-13
4.004135456e+00  2.2561553e-13
4.004162150e+00  1.6565379e-13
4.004188844e+00  1.1952171e-13
4.004215539e+00  8.4670604e-14
4.004242234e+00  5.8869693e-14
4.004268929e+00  4.0190454e-14
4.004295624e+00  2.6987657e-14
4.004322319e+00  1.7884265e-14
4.004349015e+00  1.1756648e-14
4.004375710e+00  7.7198675e-15
4.004402406e+00  5.1030163e-15
4.004429102e+00  3.4192698e-15
4.004455798e+00  2.3314602e-15
4.004482495e+00  1.6168319e-15
4.004509191e+00  1.1347935e-15
4.004535888e+00  7.9986181e-16
4.004562585e+00  5.6159077e-16
4.004589282e+00  3.9007162e-16
4.004615979e+00  2.6679981e-16
4.004642677e+00  1.7939799e-16
4.004669374e+00  1.1882107e-16
4.004696072e+00  7.8035676e-17
4.004722770e+00  5.1452624e-17
4.004749468e+00  3.4682602e-17
4.004776167e+00  2.4394218e-17
4.004802865e+00  1.8174814e-17
4.004829564e+00  1.4349146e-17
4.004856263e+00  1.1844439e-17
4.004882962e+00  1.0011244e-17
4.004909661e+00  8.4973230e-18
4.004936360e+00  7.1412886e-18
4.004963060e+00  5.8885438e-18
4.004989760e+00  4.7397550e-18
4.005016460e+00  3.7138317e-18
4.005043160e+00  2.8289380e-18
4.005069860e+00  2.0935903e-18
4.005096560e+00  1.5050672e-18
4.005123261e+00  1.0510877e-18
4.005149962e+00  7.1316604e-19
4.005176663e+00  4.7018604e-19
4.005203364e+00  3.0125106e-19
4.005230065e+00  1.8758174e-19
4.005256767e+00  1.1351854e-19
4.005283469e+00  6.6763791e-20
4.005310171e+00  3.8155392e-20
4.005336873e+00  2.1184720e-20
4.005363575e+00  1.1423772e-20
4.005390277e+00  5.9805236e-21
4.005416980e+00  3.0379832e-21
4.005443683e+00  1.4964548e-21
4.005470386e+00  7.1420216e-22
4.005497089e+00  3.2992940e-22
4.005523792e+00  1.4733966e-22
4.005550496e+00  6.3508936e-23
4.005577199e+00  2.6369157e-23
4.005603903e+00  1.0517995e-23
4.005630607e+00  4.0168334e-24
4.005657311e+00  1.4624478e-24
4.005684016e+00  5.0495208e-25
4.005710720e+00  1.6425979e-25
4.005737425e+00  4.9811075e-26
4.005764130e+00  1.3940772e-26
4.005790835e+00  3.5514142e-27
4.005817540e+00  8.1042844e-28
4.005844246e+00  1.6327541e-28
4.005870951e+00  2.9237611e-29
4.005897657e+00  5.2953831e-30
4.005924363e+00  1.5052057e-30
4.005951069e+00  8.0169802e-31
4.005977776e+00  5.2433926e-31
4.006004482e+00  3.4131068e-31
4.006031189e+00  2.1350491e-31
4.006057896e+00  1.2790452e-31
4.006084603e+00  7.3374801e-32
4.006111310e+00  4.0314188e-32
4.006138017e+00  2.1217229e-32
4.006164725e+00  1.0698037e-32
4.006191433e+00  5.1682524e-33
4.006218141e+00  2.3918573e-33
4.006244849e+00  1.0593750e-33
4.006271557e+00  4.4776670e-34
4.006298266e+00  1.7956718e-34
4.006324974e+00  6.7712146e-35
4.006351683e+00  2.3741030e-35
4.006378392e+00  7.6495665e-36
4.006405101e+00  2.2394394e-36
4.006431811e+00  5.8977853e-37
4.006458520e+00  1.3848294e-37
4.006485230e+00  2.8735771e-38
4.006511940e+00  5.2200959e-39
4.006538650e+00  8.2194697e-40
4.006565360e+00  1.1066360e-40
4.006592071e+00  1.2550917e-41
4.006618781e+00  1.1771272e-42
4.006645492e+00  8.9273463e-44
4.006672203e+00  5.3244934e-45
4.006698914e+00  2.3964307e-46
4.006725626e+00  7.7844372e-48
4.006752337e+00  1.7637433e-49
4.006779049e+00  2.6488554e-51
4.006805761e+00  2.4769159e-53
4.006832473e+00  1.3203655e-55
4.006859185e+00  3.2040655e-58
4.006885897e+00  5.7013750e-61
4.006912610e+00  3.5409291e-64
4.006939323e+00  7.9547831e-65
4.006966035e+00  3.1645667e-65
4.006992749e+00  1.1916097e-65
4.007019462e+00  3.9820734e-66
4.007046175e+00  1.0307527e-66
4.007072889e+00  1.7904929e-67
4.007099603e+00  1.8783624e-68
4.007126317e+00  1.1167137e-69
4.007153031e+00  3.6247599e-71
4.007179745e+00  6.2568958e-73
4.007206460e+00  5.5995484e-75
4.007233175e+00  2.5193815e-77
4.007259889e+00  5.3208330e-80
4.007286605e+00  5.4745778e-83
4.007313320e+00  2.3403285e-86
4.007340035e+00  3.8593466e-90
4.007366751e+00  1.6248949e-94
4.007393467e+00  6.3694860e-99
4.007420183e+00 5.8146839e-104
4.007446899e+00 1.2041132e-109
4.007473615e+00 4.7709984e-116
4.007500331e+00 2.8554112e-123
4.007527048e+00 1.9403998e-131
4.007553765e+00 1.0510991e-140
4.007580482e+00 3.0092653e-151
4.007607199e+00 2.7538499e-163
4.007633917e+00 4.4466754e-177
4.007660634e+00 6.2847542e-193
4.007687352e+00 3.4298448e-211
4.007714070e+00 2.7793083e-232
4.007740788e+00 1.1805241e-256
4.007767506e+00 2.6133273e-269
4.007794225e+00 2.7211232e-269
4.007820943e+00 2.6825175e-269
4.007847662e+00 2.5036936e-269
4.007874381e+00 2.2124233e-269
4.007901100e+00 1.8510061e-269
4.007927820e+00 1.4662365e-269
4.007954539e+00 1.0996656e-269
4.007981259e+00 7.8087478e-270
4.008007979e+00 5.2501260e-270
4.008034699e+00 3.3421727e-270
4.008061419e+00 2.0144748e-270
4.008088139e+00 1.1496649e-270
4.008114860e+00 6.2124020e-271
4.008141581e+00 3.1785473e-271
4.008168302e+00 1.5398567e-271
4.008195023e+00 7.0634317e-272
4.008221744e+00 3.0678623e-272
4.008248466e+00 1.2616565e-272
4.008275187e+00 4.9128291e-273
4.008301909e+00 1.8113691e-273
4.008328631e+00 6.2829682e-274
4.008355353e+00 1.1374281e-274
4.008382076e+00 4.4677744e-277
4.008408798e+00 7.2374238e-282
4.008435521e+00 3.3390203e-289
4.008462244e+00 3.0997028e-299
4.008488967e+00 5.9991357e-312
4.008515690e+00  0.0000000e+00
4.008542414e+00  0.0000000e+00
4.008569137e+00  0.0000000e+00
4.008595861e+00  0.0000000e+00
4.008622585e+00  0.0000000e+00
4.008649309e+00  0.0000000e+00
4.008676033e+00  0.0000000e+00
4.008702758e+00  0.0000000e+00
4.008729483e+00  0.0000000e+00
4.008756207e+00  0.0000000e+00
4.008782932e+00  0.0000000e+00
4.008809658e+00  0.0000000e+00
4.008836383e+00  0.0000000e+00
4.008863109e+00  0.0000000e+00
4.008889834e+00  0.0000000e+00
4.008916560e+00  0.0000000e+00
4.008943286e+00  0.0000000e+00
4.008970013e+00  0.0000000e+00
4.008996739e+00  0.0000000e+00
4.009023466e+00  0.0000000e+00
4.009050193e+00  0.0000000e+00
4.009076920e+00  0.0000000e+00
4.009103647e+00  0.0000000e+00
4.009130374e+00  0.0000000e+00
4.009157102e+00  0.0000000e+00
4.009183829e+00  0.0000000e+00
4.009210557e+00  0.0000000e+00
4.009237285e+00  0.0000000e+00
4.009264014e+00  0.0000000e+00
4.009290742e+00  0.0000000e+00
4.009317471e+00  0.0000000e+00
4.009344200e+00  0.0000000e+00
4.009370928e+00  0.0000000e+00
4.009397658e+00  0.0000000e+00
4.009424387e+00  0.0000000e+00
4.009451116e+00  0.0000000e+00
4.009477846e+00  0.0000000e+00
4.009504576e+00  0.0000000e+00
4.009531306e+00  0.0000000e+00
4.009558036e+00  0.0000000e+00
4.009584767e+00  0.0000000e+00
4.009611497e+00  0.0000000e+00
4.009638228e+00  0.0000000e+00
4.009664959e+00  0.0000000e+00
4.009691690e+00  0.0000000e+00
4.009718421e+00  0.0000000e+00
4.009745153e+00 2.7134835e-308
4.009771884e+00 9.3617795e-285
4.009798616e+00 1.5568180e-263
4.009825348e+00 1.0931370e-244
4.009852080e+00 6.3875196e-228
4.009878813e+00 6.3258948e-213
4.009905545e+00 1.8364160e-199
4.009932278e+00 2.4923853e-187
4.009959011e+00 2.3172299e-176
4.009985744e+00 2.0441112e-166
4.010012477e+00 2.2648223e-157
4.010039210e+00 4.0195880e-149
4.010065944e+00 1.4015349e-141
4.010092678e+00 1.1474099e-134
4.010119412e+00 2.5543145e-128
4.010146146e+00 1.8040415e-122
4.010172880e+00 3.9750173e-117
4.010199615e+00 4.2606281e-112
4.010226349e+00 1.7309524e-107
4.010253084e+00 2.9942368e-103
4.010279819e+00  2.5479120e-99
4.010306554e+00  1.1337644e-95
4.010333290e+00  2.7655642e-92
4.010360025e+00  3.8373485e-89
4.010386761e+00  2.5971177e-86
4.010413497e+00  1.3965259e-83
4.010440233e+00  5.6776905e-81
4.010466969e+00  1.2549211e-78
4.010493706e+00  1.8044556e-76
4.010520442e+00  1.7506298e-74
4.010547179e+00  1.1101352e-72
4.010573916e+00  1.8445280e-71
4.010600653e+00  4.4250712e-70
4.010627391e+00  5.0174428e-67
4.010654128e+00  7.0680857e-65
4.010680866e+00  7.0251559e-63
4.010707604e+00  5.4904652e-61
4.010734342e+00  3.3135607e-59
4.010761080e+00  1.4218700e-57
4.010787818e+00  4.7280198e-56
4.010814557e+00  1.9313816e-54
4.010841296e+00  5.2541090e-53
4.010868035e+00  1.1880316e-51
4.010894774e+00  2.2613030e-50
4.010921513e+00  3.6996304e-49
4.010948253e+00  5.2712435e-48
4.010974992e+00  6.6150410e-47
4.011001732e+00  7.3844679e-46
4.011028472e+00  7.3990082e-45
4.011055212e+00  6.7076260e-44
4.011081953e+00  5.5411447e-43
4.011108693e+00  4.1981394e-42
4.011135434e+00  2.9337019e-41
4.011162175e+00  1.9006347e-40
4.011188916e+00  1.1295211e-39
4.011215657e+00  6.4179097e-39
4.011242399e+00  3.4163347e-38
4.011269140e+00  1.7103435e-37
4.011295882e+00  8.0837659e-37
4.011322624e+00  3.6049950e-36
4.011349366e+00  1.5354798e-35
4.011376109e+00  6.2309685e-35
4.011402851e+00  2.4146218e-34
4.011429594e+00  8.9551226e-34
4.011456337e+00  3.1824911e-33
4.011483080e+00  1.0879335e-32
4.011509823e+00  3.5825388e-32
4.011536566e+00  1.1374394e-31
4.011563310e+00  3.4857110e-31
4.011590054e+00  1.0318010e-30
4.011616797e+00  2.9538387e-30
4.011643542e+00  8.1793243e-30
4.011670286e+00  2.1915646e-29
4.011697030e+00  5.6556263e-29
4.011723775e+00  1.4247635e-28
4.011750520e+00  3.5295912e-28
4.011777265e+00  8.5778460e-28
4.011804010e+00  2.0444219e-27
4.011830755e+00  4.7797772e-27
4.011857501e+00  1.0963668e-26
4.011884247e+00  2.4668823e-26
4.011910993e+00  5.4418560e-26
4.011937739e+00  1.1755899e-25
4.011964485e+00  2.4778194e-25
4.011991231e+00  5.1304233e-25
4.012017978e+00  1.0456779e-24
4.012044725e+00  2.0987714e-24
4.012071472e+00  4.1558577e-24
4.012098219e+00  8.1415665e-24
4.012124966e+00  1.5806302e-23
4.012151714e+00  3.0604978e-23
4.012178461e+00  5.9232014e-23
4.012205209e+00  1.1482885e-22
4.012231957e+00  2.2307854e-22
4.012258705e+00  4.3373602e-22
4.012285454e+00  8.4179586e-22
4.012312202e+00  1.6253151e-21
4.012338951e+00  3.1112007e-21
4.012365700e+00  5.8866367e-21
4.012392449e+00  1.0983077e-20
4.012419198e+00  2.0172686e-20
4.012445948e+00  3.6434452e-20
4.012472698e+00  6.4669173e-20
4.012499447e+00  1.1277026e-19
4.012526197e+00  1.9318537e-19
4.012552948e+00  3.2513278e-19
4.012579698e+00  5.3765303e-19
4.012606448e+00  8.7366997e-19
4.012633199e+00  1.3951814e-18
4.012659950e+00  2.1895724e-18
4.012686701e+00  3.3768060e-18
4.012713452e+00  5.1168716e-18
4.012740204e+00  7.6163050e-18
4.012766955e+00  1.1132108e-17
4.012793707e+00  1.5970241e-17
4.012820459e+00  2.2475700e-17
4.012847211e+00  3.1010843e-17
4.012873964e+00  4.1918947e-17
4.012900716e+00  5.5471799e-17
4.012927469e+00  7.1803113e-17
4.012954222e+00  9.0833987e-17
4.012980975e+00  1.1220184e-16
4.013007728e+00  1.3520904e-16
4.013034481e+00  1.5881005e-16
4.013061235e+00  1.8165422e-16
4.013087988e+00  2.0219459e-16
4.013114742e+00  2.1886223e-16
4.013141496e+00  2.3029479e-16
4.013168251e+00  2.3560608e-16
4.013195005e+00  2.3470234e-16
4.013221760e+00  2.2870728e-16
4.013248515e+00  2.2067111e-16
4.013275270e+00  2.1693461e-16
4.013302025e+00  2.2982612e-16
4.013328780e+00  2.8282428e-16
4.013355536e+00  4.1995550e-16
4.013382291e+00  7.2199556e-16
4.013409047e+00  1.3330274e-15
4.013435803e+00  2.5018966e-15
4.013462560e+00  4.6439444e-15
4.013489316e+00  8.4287666e-15
4.013516073e+00  1.4899570e-14
4.013542829e+00  2.5628460e-14
4.013569586e+00  4.2910089e-14
4.013596343e+00  6.9993479e-14
4.013623101e+00  1.1134904e-13
4.013649858e+00  1.7296578e-13
4.013676616e+00  2.6267151e-13
4.013703374e+00  3.9046946e-13
4.013730132e+00  5.6888514e-13
4.013756890e+00  8.1331878e-13
4.013783648e+00  1.1424013e-12
4.013810407e+00  1.5783529e-12
4.013837166e+00  2.1473454e-12
4.013863925e+00  2.8798670e-12
4.013890684e+00  3.8110894e-12
4.013917443e+00  4.9812254e-12
4.013944202e+00  6.4358703e-12
4.013970962e+00  8.2262832e-12
4.013997722e+00  1.0409581e-11
4.014024482e+00  1.3048771e-11
4.014051242e+00  1.6212553e-11
4.014078002e+00  1.9974785e-11
4.014104763e+00  2.4413356e-11
4.014131524e+00  2.9609024e-11
4.014158284e+00  3.5642664e-11
4.014185045e+00  4.2592322e-11
4.014211807e+00  5.0528769e-11
4.014238568e+00  5.9510124e-11
4.014265330e+00  6.9574529e-11
4.014292091e+00  8.0731438e-11
4.014318853e+00  9.2952889e-11
4.014345616e+00  1.0616326e-10
4.014372378e+00  1.2023311e-10
4.014399140e+00  1.3497651e-10
4.014425903e+00  1.5015647e-10
4.014452666e+00  1.6549894e-10
4.014479429e+00  1.8071439e-10
4.014506192e+00  1.9552340e-10
4.014532955e+00  2.0968076e-10
4.014559719e+00  2.2299364e-10
4.014586483e+00  2.3533253e-10
4.014613247e+00  2.4663807e-10
4.014640011e+00  2.5692861e-10
4.014666775e+00  2.6630997e-10
4.014693539e+00  2.7498133e-10
4.014720304e+00  2.8322231e-10
4.014747069e+00  2.9134436e-10
4.014773834e+00  2.9959764e-10
4.014800599e+00  3.0804441e-10
4.014827364e+00  3.1643174e-10
4.014854130e+00  3.2411077e-10
4.014880895e+00  3.3004644e-10
4.014907661e+00  3.3293865e-10
4.014934427e+00  3.3144059e-10
4.014961194e+00  3.2442637e-10
4.014987960e+00  3.1124131e-10
4.015014727e+00  2.9187116e-10
4.015041493e+00  2.6698933e-10
4.015068260e+00  2.3787497e-10
4.015095027e+00  2.0622622e-10
4.015121795e+00  1.7391496e-10
4.015148562e+00  1.4273507e-10
4.015175330e+00  1.1419037e-10
4.015202098e+00  8.9352316e-11
4.015228866e+00  6.8801772e-11
4.015255634e+00  5.2649920e-11
4.015282402e+00  4.0625161e-11
4.015309171e+00  3.2207484e-11
4.015335940e+00  2.6791188e-11
4.015362709e+00  2.3865395e-11
4.015389478e+00  2.3202907e-11
4.015416247e+00  2.5098313e-11
4.015443016e+00  3.0607613e-11
4.015469786e+00  4.1875539e-11
4.015496556e+00  6.2490135e-11
4.015523326e+00  9.7873311e-11
4.015550096e+00  1.5562572e-10
4.015576866e+00  2.4575005e-10
4.015603637e+00  3.8068353e-10
4.015630407e+00  5.7514401e-10
4.015657178e+00  8.4592642e-10
4.015683949e+00  1.2119485e-09
4.015710721e+00  1.6949526e-09
4.015737492e+00  2.3212218e-09
4.015764264e+00  3.1243831e-09
4.015791035e+00  4.1488564e-09
4.015817807e+00  5.4529185e-09
4.015844579e+00  7.1099504e-09
4.015871352e+00  9.2064929e-09
4.015898124e+00  1.1836373e-08
4.015924897e+00  1.5091239e-08
4.015951670e+00  1.9048972e-08
4.015978443e+00  2.3762135e-08
4.016005216e+00  2.9248558e-08
4.016031989e+00  3.5485465e-08
4.016058763e+00  4.2407139e-08
4.016085536e+00  4.9905293e-08
4.016112310e+00  5.7830723e-08
4.016139084e+00  6.5995020e-08
4.016165859e+00  7.4172128e-08
4.016192633e+00  8.2100826e-08
4.016219408e+00  8.9490627e-08
4.016246183e+00  9.6034596e-08
4.016272958e+00  1.0143297e-07
4.016299733e+00  1.0543049e-07
4.016326508e+00  1.0786804e-07
4.016353284e+00  1.0874469e-07
4.016380059e+00  1.0828113e-07
4.016406835e+00  1.0697010e-07
4.016433611e+00  1.0559661e-07
4.016460387e+00  1.0521259e-07
4.016487164e+00  1.0705825e-07
4.016513940e+00  1.1243475e-07
4.016540717e+00  1.2254666e-07
4.016567494e+00  1.3834382e-07
4.016594271e+00  1.6039337e-07
4.016621048e+00  1.8881039e-07
4.016647826e+00  2.2325304e-07
4.016674604e+00  2.6298172e-07
4.016701381e+00  3.0695837e-07
4.016728159e+00  3.5396078e-07
4.016754938e+00  4.0268773e-07
4.016781716e+00  4.5184148e-07
4.016808494e+00  5.0018736e-07
4.016835273e+00  5.4660313e-07
4.016862052e+00  5.9013715e-07
4.016888831e+00  6.3009258e-07
4.016915610e+00  6.6614367e-07
4.016942390e+00  6.9847003e-07
4.016969170e+00  7.2787279e-07
4.016995949e+00  7.5582044e-07
4.017022729e+00  7.8437337e-07
4.017049509e+00  8.1595974e-07
4.017076290e+00  8.5301938e-07
4.017103070e+00  8.9758357e-07
4.017129851e+00  9.5089411e-07
4.017156632e+00  1.0131681e-06
4.017183413e+00  1.0835769e-06
