# Wave/freq Total
4.500000000e+00  1.7341842e-14
4.500030000e+00  3.3917182e-14
4.500060000e+00  6.4893875e-14
4.500090001e+00  1.2154036e-13
4.500120001e+00  2.2296820e-13
4.500150002e+00  4.0090225e-13
4.500180003e+00  7.0691685e-13
4.500210004e+00  1.2231720e-12
4.500240006e+00  2.0779897e-12
4.500270007e+00  3.4679970e-12
4.500300009e+00  5.6888944e-12
4.500330011e+00  9.1771858e-12
4.500360013e+00  1.4560586e-11
4.500390016e+00  2.2742776e-11
4.500420018e+00  3.4976996e-11
4.500450021e+00  5.2982470e-11
4.500480024e+00  7.9068801e-11
4.500510027e+00  1.1627751e-10
4.500540031e+00  1.6853626e-10
4.500570034e+00  2.4082744e-10
4.500600038e+00  3.3938510e-10
4.500630042e+00  4.7195700e-10
4.500660046e+00  6.4818857e-10
4.500690051e+00  8.8021868e-10
4.500720055e+00  1.1835580e-09
4.500750060e+00  1.5782735e-09
4.500780065e+00  2.0903885e-09
4.500810070e+00  2.7532927e-09
4.500840076e+00  3.6088368e-09
4.500870081e+00  4.7077486e-09
4.500900087e+00  6.1092751e-09
4.500930093e+00  7.8800901e-09
4.500960099e+00  1.0092880e-08
4.500990106e+00  1.2825163e-08
4.501020112e+00  1.6158841e-08
4.501050119e+00  2.0180771e-08
4.501080126e+00  2.4984276e-08
4.501110133e+00  3.0671424e-08
4.501140141e+00  3.7355587e-08
4.501170148e+00  4.5164234e-08
4.501200156e+00  5.4241651e-08
4.501230164e+00  6.4751301e-08
4.501260172e+00  7.6877254e-08
4.501290181e+00  9.0823916e-08
4.501320189e+00  1.0681341e-07
4.501350198e+00  1.2508061e-07
4.501380207e+00  1.4586692e-07
4.501410216e+00  1.6941451e-07
4.501440226e+00  1.9596344e-07
4.501470235e+00  2.2575297e-07
4.501500245e+00  2.5902704e-07
4.501530255e+00  2.9604200e-07
4.501560265e+00  3.3707351e-07
4.501590276e+00  3.8241930e-07
4.501620286e+00  4.3239624e-07
4.501650297e+00  4.8733191e-07
4.501680308e+00  5.4755341e-07
4.501710319e+00  6.1337693e-07
4.501740331e+00  6.8510141e-07
4.501770342e+00  7.6300784e-07
4.501800354e+00  8.4736374e-07
4.501830366e+00  9.3843040e-07
4.501860378e+00  1.0364702e-06
4.501890391e+00  1.1417515e-06
4.501920403e+00  1.2545502e-06
4.501950416e+00  1.3751481e-06
4.501980429e+00  1.5038295e-06
4.502010442e+00  1.6408759e-06
4.502040456e+00  1.7865624e-06
4.502070469e+00  1.9411539e-06
4.502100483e+00  2.1049024e-06
4.502130497e+00  2.2780459e-06
4.502160511e+00  2.4608073e-06
4.502190526e+00  2.6533947e-06
4.502220540e+00  2.8560021e-06
4.502250555e+00  3.0688096e-06
4.502280570e+00  3.2919848e-06
4.502310585e+00  3.5256822e-06
4.502340601e+00  3.7700437e-06
4.502370616e+00  4.0251968e-06
4.502400632e+00  4.2912536e-06
4.502430648e+00  4.5683084e-06
4.502460664e+00  4.8564355e-06
4.502490681e+00  5.1556873e-06
4.502520697e+00  5.4660921e-06
4.502550714e+00  5.7876524e-06
4.502580731e+00  6.1203444e-06
4.502610748e+00  6.4641178e-06
4.502640766e+00  6.8188976e-06
4.502670783e+00  7.1845869e-06
4.502700801e+00  7.5610709e-06
4.502730819e+00  7.9482212e-06
4.502760837e+00  8.3458998e-06
4.502790856e+00  8.7539611e-06
4.502820874e+00  9.1722514e-06
4.502850893e+00  9.6006052e-06
4.502880912e+00  1.0038837e-05
4.502910931e+00  1.0486729e-05
4.502940951e+00  1.0944016e-05
4.502970970e+00  1.1410360e-05
4.503000990e+00  1.1885333e-05
4.503031010e+00  1.2368392e-05
4.503061030e+00  1.2858866e-05
4.503091051e+00  1.3355952e-05
4.503121071e+00  1.3858740e-05
4.503151092e+00  1.4366251e-05
4.503181113e+00  1.4877504e-05
4.503211134e+00  1.5391597e-05
4.503241156e+00  1.5907779e-05
4.503271177e+00  1.6425519e-05
4.503301199e+00  1.6944540e-05
4.503331221e+00  1.7464824e-05
4.503361244e+00  1.7986592e-05
4.503391266e+00  1.8510258e-05
4.503421289e+00  1.9036390e-05
4.503451311e+00  1.9565669e-05
4.503481334e+00  2.0098876e-05
4.503511358e+00  2.0636888e-05
4.503541381e+00  2.1180688e-05
4.503571405e+00  2.1731371e-05
4.503601428e+00  2.2290129e-05
4.503631452e+00  2.2858202e-05
4.503661477e+00  2.3436793e-05
4.503691501e+00  2.4026961e-05
4.503721526e+00  2.4629502e-05
4.503751550e+00  2.5244857e-05
4.503781575e+00  2.5873072e-05
4.503811601e+00  2.6513805e-05
4.503841626e+00  2.7166385e-05
4.503871652e+00  2.7829907e-05
4.503901677e+00  2.8503310e-05
4.503931703e+00  2.9185430e-05
4.503961730e+00  2.9875017e-05
4.503991756e+00  3.0570701e-05
4.504021783e+00  3.1270945e-05
4.504051810e+00  3.1973998e-05
4.504081837e+00  3.2677895e-05
4.504111864e+00  3.3380499e-05
4.504141891e+00  3.4079608e-05
4.504171919e+00  3.4773103e-05
4.504201947e+00  3.5459109e-05
4.504231975e+00  3.6136132e-05
4.504262003e+00  3.6803127e-05
4.504292031e+00  3.7459504e-05
4.504322060e+00  3.8105048e-05
4.504352089e+00  3.8739807e-05
4.504382118e+00  3.9363963e-05
4.504412147e+00  3.9977742e-05
4.504442176e+00  4.0581381e-05
4.504472206e+00  4.1175148e-05
4.504502236e+00  4.1759426e-05
4.504532266e+00  4.2334813e-05
4.504562296e+00  4.2902188e-05
4.504592326e+00  4.3462731e-05
4.504622357e+00  4.4017830e-05
4.504652388e+00  4.4568876e-05
4.504682419e+00  4.5116962e-05
4.504712450e+00  4.5662542e-05
4.504742481e+00  4.6205146e-05
4.504772513e+00  4.6743259e-05
4.504802545e+00  4.7274448e-05
4.504832577e+00  4.7795788e-05
4.504862609e+00  4.8304517e-05
4.504892642e+00  4.8798820e-05
4.504922674e+00  4.9278519e-05
4.504952707e+00  4.9745449e-05
4.504982740e+00  5.0203339e-05
4.505012773e+00  5.0657102e-05
4.505042807e+00  5.1111630e-05
4.505072840e+00  5.1570328e-05
4.505102874e+00  5.2033775e-05
4.505132908e+00  5.2498880e-05
4.505162942e+00  5.2958797e-05
4.505192977e+00  5.3403635e-05
4.505223011e+00  5.3821769e-05
4.505253046e+00  5.4201400e-05
4.505283081e+00  5.4531952e-05
4.505313116e+00  5.4804995e-05
4.505343152e+00  5.5014504e-05
4.505373187e+00  5.5156493e-05
4.505403223e+00  5.5228092e-05
4.505433259e+00  5.5226356e-05
4.505463296e+00  5.5147096e-05
4.505493332e+00  5.4983984e-05
4.505523369e+00  5.4728164e-05
4.505553405e+00  5.4368470e-05
4.505583442e+00  5.3892255e-05
4.505613480e+00  5.3286839e-05
4.505643517e+00  5.2541594e-05
4.505673555e+00  5.1650796e-05
4.505703593e+00  5.0617341e-05
4.505733631e+00  4.9457218e-05
4.505763669e+00  4.8204118e-05
4.505793707e+00  4.6912985e-05
4.505823746e+00  4.5660775e-05
4.505853785e+00  4.4542817e-05
4.505883824e+00  4.3663953e-05
4.505913863e+00  4.3125176e-05
4.505943902e+00  4.3008217e-05
4.505973942e+00  4.3361759e-05
4.506003982e+00  4.4192966e-05
4.506034022e+00  4.5466704e-05
4.506064062e+00  4.7112602e-05
4.506094102e+00  4.9037809e-05
4.506124143e+00  5.1141888e-05
4.506154184e+00  5.3330203e-05
4.506184225e+00  5.5523219e-05
4.506214266e+00  5.7660823e-05
4.506244308e+00  5.9702284e-05
4.506274349e+00  6.1623372e-05
4.506304391e+00  6.3412336e-05
4.506334433e+00  6.5066053e-05
4.506364475e+00  6.6587042e-05
4.506394518e+00  6.7981508e-05
4.506424560e+00  6.9258167e-05
4.506454603e+00  7.0427429e-05
4.506484646e+00  7.1500816e-05
4.506514689e+00  7.2489791e-05
4.506544733e+00  7.3404604e-05
4.506574777e+00  7.4252790e-05
4.506604820e+00  7.5037585e-05
4.506634864e+00  7.5756464e-05
4.506664909e+00  7.6399862e-05
4.506694953e+00  7.6950296e-05
4.506724998e+00  7.7382284e-05
4.506755042e+00  7.7663775e-05
4.506785088e+00  7.7760062e-05
4.506815133e+00  7.7641019e-05
4.506845178e+00  7.7291682e-05
4.506875224e+00  7.6724490e-05
4.506905270e+00  7.5989764e-05
4.506935316e+00  7.5179666e-05
4.506965362e+00  7.4421478e-05
4.506995408e+00  7.3858823e-05
4.507025455e+00  7.3623827e-05
4.507055502e+00  7.3807501e-05
4.507085549e+00  7.4437567e-05
4.507115596e+00  7.5471288e-05
4.507145644e+00  7.6805933e-05
4.507175691e+00  7.8303447e-05
4.507205739e+00  7.9821271e-05
4.507235787e+00  8.1240059e-05
4.507265835e+00  8.2481340e-05
4.507295884e+00  8.3512434e-05
4.507325932e+00  8.4340282e-05
4.507355981e+00  8.4998477e-05
4.507386030e+00  8.5532406e-05
4.507416080e+00  8.5986432e-05
4.507446129e+00  8.6395320e-05
4.507476179e+00  8.6780452e-05
4.507506228e+00  8.7150161e-05
4.507536278e+00  8.7502795e-05
4.507566329e+00  8.7830956e-05
4.507596379e+00  8.8125565e-05
4.507626430e+00  8.8378830e-05
4.507656481e+00  8.8585813e-05
4.507686532e+00  8.8744716e-05
4.507716583e+00  8.8856229e-05
4.507746634e+00  8.8922801e-05
4.507776686e+00  8.8947584e-05
4.507806738e+00  8.8933856e-05
4.507836790e+00  8.8884686e-05
4.507866842e+00  8.8802837e-05
4.507896895e+00  8.8690811e-05
4.507926947e+00  8.8550945e-05
4.507957000e+00  8.8385486e-05
4.507987053e+00  8.8196606e-05
4.508017106e+00  8.7986364e-05
4.508047160e+00  8.7756615e-05
4.508077213e+00  8.7508903e-05
4.508107267e+00  8.7244387e-05
4.508137321e+00  8.6963818e-05
4.508167376e+00  8.6667611e-05
4.508197430e+00  8.6356049e-05
4.508227485e+00  8.6029584e-05
4.508257540e+00  8.5689205e-05
4.508287595e+00  8.5336736e-05
4.508317650e+00  8.4974966e-05
4.508347705e+00  8.4607460e-05
4.508377761e+00  8.4238036e-05
4.508407817e+00  8.3869982e-05
4.508437873e+00  8.3505222e-05
4.508467929e+00  8.3143693e-05
4.508497986e+00  8.2783152e-05
4.508528042e+00  8.2419492e-05
4.508558099e+00  8.2047479e-05
4.508588156e+00  8.1661679e-05
4.508618213e+00  8.1257289e-05
4.508648271e+00  8.0830663e-05
4.508678329e+00  8.0379449e-05
4.508708386e+00  7.9902399e-05
4.508738444e+00  7.9398968e-05
4.508768503e+00  7.8868917e-05
4.508798561e+00  7.8312004e-05
4.508828620e+00  7.7727856e-05
4.508858679e+00  7.7115995e-05
4.508888738e+00  7.6475955e-05
4.508918797e+00  7.5807413e-05
4.508948856e+00  7.5110289e-05
4.508978916e+00  7.4384801e-05
4.509008976e+00  7.3631519e-05
4.509039036e+00  7.2851487e-05
4.509069096e+00  7.2046464e-05
4.509099157e+00  7.1219269e-05
4.509129217e+00  7.0374122e-05
4.509159278e+00  6.9516780e-05
4.509189339e+00  6.8654298e-05
4.509219401e+00  6.7794293e-05
4.509249462e+00  6.6943810e-05
4.509279524e+00  6.6108052e-05
4.509309586e+00  6.5289364e-05
4.509339648e+00  6.4486798e-05
4.509369710e+00  6.3696441e-05
4.509399772e+00  6.2912357e-05
4.509429835e+00  6.2127877e-05
4.509459898e+00  6.1336816e-05
4.509489961e+00  6.0534337e-05
4.509520024e+00  5.9717316e-05
4.509550088e+00  5.8884263e-05
4.509580151e+00  5.8034964e-05
4.509610215e+00  5.7170029e-05
4.509640279e+00  5.6290498e-05
4.509670344e+00  5.5397559e-05
4.509700408e+00  5.4492398e-05
4.509730473e+00  5.3576140e-05
4.509760538e+00  5.2649828e-05
4.509790603e+00  5.1714417e-05
4.509820668e+00  5.0770755e-05
4.509850733e+00  4.9819551e-05
4.509880799e+00  4.8861342e-05
4.509910865e+00  4.7896471e-05
4.509940931e+00  4.6925072e-05
4.509970997e+00  4.5947105e-05
4.510001064e+00  4.4962380e-05
4.510031130e+00  4.3970607e-05
4.510061197e+00  4.2971431e-05
4.510091264e+00  4.1964447e-05
4.510121332e+00  4.0949215e-05
4.510151399e+00  3.9925272e-05
4.510181467e+00  3.8892196e-05
4.510211535e+00  3.7849745e-05
4.510241603e+00  3.6798084e-05
4.510271671e+00  3.5738085e-05
4.510301739e+00  3.4671585e-05
4.510331808e+00  3.3601510e-05
4.510361877e+00  3.2531729e-05
4.510391946e+00  3.1466603e-05
4.510422015e+00  3.0410300e-05
4.510452085e+00  2.9366059e-05
4.510482155e+00  2.8335666e-05
4.510512224e+00  2.7319330e-05
4.510542295e+00  2.6316060e-05
4.510572365e+00  2.5324410e-05
4.510602435e+00  2.4343365e-05
4.510632506e+00  2.3373047e-05
4.510662577e+00  2.2415000e-05
4.510692648e+00  2.1471973e-05
4.510722719e+00  2.0547287e-05
4.510752791e+00  1.9644025e-05
4.510782862e+00  1.8764306e-05
4.510812934e+00  1.7908878e-05
4.510843006e+00  1.7077105e-05
4.510873079e+00  1.6267303e-05
4.510903151e+00  1.5477267e-05
4.510933224e+00  1.4704822e-05
4.510963297e+00  1.3948242e-05
4.510993370e+00  1.3206485e-05
4.511023443e+00  1.2479247e-05
4.511053517e+00  1.1766876e-05
4.511083590e+00  1.1070223e-05
4.511113664e+00  1.0390462e-05
4.511143738e+00  9.7289317e-06
4.511173813e+00  9.0870005e-06
4.511203887e+00  8.4659617e-06
4.511233962e+00  7.8669643e-06
4.511264037e+00  7.2909725e-06
4.511294112e+00  6.7387508e-06
4.511324187e+00  6.2108720e-06
4.511354263e+00  5.7077429e-06
4.511384338e+00  5.2296416e-06
4.511414414e+00  4.7767524e-06
4.511444490e+00  4.3491961e-06
4.511474566e+00  3.9470296e-06
4.511504643e+00  3.5702242e-06
4.511534720e+00  3.2186216e-06
4.511564797e+00  2.8918832e-06
4.511594874e+00  2.5894549e-06
4.511624951e+00  2.3105611e-06
4.511655028e+00  2.0542359e-06
4.511685106e+00  1.8193828e-06
4.511715184e+00  1.6048462e-06
4.511745262e+00  1.4094743e-06
4.511775340e+00  1.2321603e-06
4.511805419e+00  1.0718572e-06
4.511835498e+00  9.2757069e-07
4.511865577e+00  7.9834095e-07
4.511895656e+00  6.8322207e-07
4.511925735e+00  5.8126738e-07
4.511955815e+00  4.9152276e-07
4.511985894e+00  4.1302780e-07
4.512015974e+00  3.4482250e-07
4.512046054e+00  2.8595720e-07
4.512076135e+00  2.3550351e-07
4.512106215e+00  1.9256501e-07
4.512136296e+00  1.5628680e-07
4.512166377e+00  1.2586348e-07
4.512196458e+00  1.0054525e-07
4.512226539e+00  7.9641855e-08
4.512256621e+00  6.2525325e-08
4.512286702e+00  4.8629965e-08
4.512316784e+00  3.7451422e-08
4.512346866e+00  2.8544297e-08
4.512376949e+00  2.1518839e-08
4.512407031e+00  1.6037044e-08
4.512437114e+00  1.1808460e-08
4.512467197e+00  8.5859025e-09
4.512497280e+00  6.1612296e-09
4.512527363e+00  4.3612110e-09
4.512557447e+00  3.0435321e-09
4.512587530e+00  2.0929249e-09
4.512617614e+00  1.4174464e-09
4.512647698e+00  9.4494218e-10
4.512677783e+00  6.1974283e-10
4.512707867e+00  3.9965080e-10
4.512737952e+00  2.5325617e-10
4.512768037e+00  1.5761191e-10
4.512798122e+00  9.6271889e-11
4.512828207e+00  5.7678774e-11
4.512858293e+00  3.3873202e-11
4.512888379e+00  1.9486376e-11
4.512918465e+00  1.0973580e-11
4.512948551e+00  6.0452021e-12
4.512978637e+00  3.2554586e-12
4.513008724e+00  1.7125392e-12
4.513038810e+00  8.7938432e-13
4.513068897e+00  4.4045421e-13
4.513098984e+00  2.1501356e-13
4.513129072e+00  1.0221470e-13
4.513159159e+00  4.7276956e-14
4.513189247e+00  2.1253578e-14
4.513219335e+00  9.2757622e-15
4.513249423e+00  3.9246124e-15
4.513279511e+00  1.6071225e-15
4.513309600e+00  6.3567156e-16
4.513339689e+00  2.4226928e-16
4.513369777e+00  8.8715197e-17
4.513399867e+00  3.1109021e-17
4.513429956e+00  1.0410155e-17
4.513460045e+00  3.3574293e-18
4.513490135e+00  1.0087103e-18
4.513520225e+00  2.8272219e-19
4.513550315e+00  7.3509358e-20
4.513580406e+00  1.7573138e-20
4.513610496e+00  3.8229153e-21
4.513640587e+00  7.4791366e-22
4.513670678e+00  1.2981669e-22
4.513700769e+00  1.9674754e-23
4.513730860e+00  2.5524202e-24
4.513760952e+00  2.7513060e-25
4.513791044e+00  2.3108194e-26
4.513821136e+00  1.1863880e-27
4.513851228e+00  2.5092866e-29
4.513881320e+00  4.6880085e-30
4.513911413e+00  1.7399849e-31
4.513941505e+00  4.1912306e-33
4.513971598e+00  6.6149417e-35
4.514001691e+00  6.4816158e-37
4.514031785e+00  1.6981486e-38
4.514061878e+00  2.1386587e-36
4.514091972e+00  2.0315777e-34
4.514122066e+00  1.2224329e-32
4.514152160e+00  4.9417569e-31
4.514182254e+00  1.4113390e-29
4.514212349e+00  2.9702068e-28
4.514242444e+00  4.7834390e-27
4.514272539e+00  6.0880465e-26
4.514302634e+00  6.2955087e-25
4.514332729e+00  5.4180955e-24
4.514362825e+00  3.9631427e-23
4.514392920e+00  2.5094973e-22
4.514423016e+00  1.3975802e-21
4.514453113e+00  6.9339544e-21
4.514483209e+00  3.1159040e-20
4.514513306e+00  1.2788496e-19
4.514543402e+00  4.8414645e-19
4.514573499e+00  1.7053242e-18
4.514603596e+00  5.6309174e-18
4.514633694e+00  1.7544099e-17
4.514663791e+00  5.1869188e-17
4.514693889e+00  1.4622675e-16
4.514723987e+00  3.9471449e-16
4.514754085e+00  1.0236876e-15
4.514784184e+00  2.5581761e-15
4.514814282e+00  6.1747383e-15
4.514844381e+00  1.4424672e-14
4.514874480e+00  3.2667765e-14
4.514904579e+00  7.1807655e-14
4.514934678e+00  1.5329167e-13
4.514964778e+00  3.1870762e-13
4.514994878e+00  6.4547132e-13
4.515024978e+00  1.2745425e-12
4.515055078e+00  2.4558599e-12
4.515085178e+00  4.6216401e-12
4.515115279e+00  8.5021267e-12
4.515145380e+00  1.5303023e-11
4.515175480e+00  2.6972578e-11
4.515205582e+00  4.6595440e-11
4.515235683e+00  7.8957146e-11
4.515265785e+00  1.3133861e-10
4.515295886e+00  2.1460229e-10
4.515325988e+00  3.4463830e-10
4.515356091e+00  5.4423466e-10
4.515386193e+00  8.4542556e-10
4.515416295e+00  1.2923540e-09
4.515446398e+00  1.9446639e-09
4.515476501e+00  2.8814133e-09
4.515506604e+00  4.2054802e-09
4.515536708e+00  6.0484125e-09
4.515566811e+00  8.5756615e-09
4.515596915e+00  1.1992126e-08
4.515627019e+00  1.6547930e-08
4.515657123e+00  2.2544337e-08
4.515687228e+00  3.0339706e-08
4.515717332e+00  4.0355342e-08
4.515747437e+00  5.3081064e-08
4.515777542e+00  6.9080227e-08
4.515807647e+00  8.8993878e-08
4.515837753e+00  1.1354367e-07
4.515867858e+00  1.4353314e-07
4.515897964e+00  1.7984693e-07
4.515928070e+00  2.2344777e-07
4.515958176e+00  2.7537074e-07
4.515988283e+00  3.3671479e-07
4.516018389e+00  4.0863131e-07
4.516048496e+00  4.9230934e-07
4.516078603e+00  5.8895733e-07
4.516108710e+00  6.9978100e-07
4.516138817e+00  8.2595695e-07
4.516168925e+00  9.6860154e-07
4.516199033e+00  1.1287347e-06
4.516229141e+00  1.3072382e-06
4.516259249e+00  1.5048083e-06
4.516289357e+00  1.7219014e-06
4.516319466e+00  1.9586737e-06
4.516349575e+00  2.2149134e-06
4.516379684e+00  2.4899649e-06
4.516409793e+00  2.7826472e-06
4.516439902e+00  3.0911638e-06
4.516470012e+00  3.4130195e-06
4.516500122e+00  3.7449272e-06
4.516530232e+00  4.0827324e-06
4.516560342e+00  4.4213573e-06
4.516590452e+00  4.7547796e-06
4.516620563e+00  5.0760702e-06
4.516650674e+00  5.3775275e-06
4.516680785e+00  5.6509665e-06
4.516710896e+00  5.8882441e-06
4.516741007e+00  6.0821159e-06
4.516771119e+00  6.2275081e-06
4.516801231e+00  6.3232172e-06
4.516831343e+00  6.3739190e-06
4.516861455e+00  6.3921744e-06
4.516891567e+00  6.3999279e-06
4.516921680e+00  6.4288901e-06
4.516951793e+00  6.5192771e-06
4.516981906e+00  6.7167013e-06
4.517012019e+00  7.0674932e-06
4.517042133e+00  7.6132685e-06
4.517072246e+00  8.3858871e-06
4.517102360e+00  9.4039307e-06
4.517132474e+00  1.0671437e-05
4.517162588e+00  1.2178994e-05
4.517192703e+00  1.3906685e-05
4.517222817e+00  1.5827961e-05
4.517252932e+00  1.7913516e-05
4.517283047e+00  2.0134469e-05
4.517313162e+00  2.2464568e-05
4.517343278e+00  2.4881466e-05
4.517373393e+00  2.7367324e-05
4.517403509e+00  2.9908957e-05
4.517433625e+00  3.2497660e-05
4.517463741e+00  3.5128717e-05
4.517493858e+00  3.7800549e-05
4.517523974e+00  4.0513542e-05
4.517554091e+00  4.3268699e-05
4.517584208e+00  4.6066402e-05
4.517614326e+00  4.8905547e-05
4.517644443e+00  5.1783266e-05
4.517674561e+00  5.4695212e-05
4.517704678e+00  5.7636220e-05
4.517734796e+00  6.0601074e-05
4.517764915e+00  6.3585071e-05
4.517795033e+00  6.6584267e-05
4.517825152e+00  6.9595406e-05
4.517855271e+00  7.2615676e-05
4.517885390e+00  7.5642476e-05
4.517915509e+00  7.8673327e-05
4.517945628e+00  8.1705987e-05
4.517975748e+00  8.4738698e-05
4.518005868e+00  8.7770458e-05
4.518035988e+00  9.0801173e-05
4.518066108e+00  9.3831605e-05
4.518096228e+00  9.6863095e-05
4.518126349e+00  9.9897124e-05
4.518156470e+00  1.0293483e-04
4.518186591e+00  1.0597662e-04
4.518216712e+00  1.0902196e-04
4.518246834e+00  1.1206941e-04
4.518276955e+00  1.1511683e-04
4.518307077e+00  1.1816175e-04
4.518337199e+00  1.2120165e-04
4.518367321e+00  1.2423428e-04
4.518397444e+00  1.2725767e-04
4.518427567e+00  1.3027008e-04
4.518457689e+00  1.3326961e-04
4.518487812e+00  1.3625380e-04
4.518517936e+00  1.3921912e-04
4.518548059e+00  1.4216053e-04
4.518578183e+00  1.4507114e-04
4.518608307e+00  1.4794207e-04
4.518638431e+00  1.5076247e-04
4.518668555e+00  1.5351964e-04
4.518698679e+00  1.5619917e-04
4.518728804e+00  1.5878498e-04
4.518758929e+00  1.6125928e-04
4.518789054e+00  1.6360229e-04
4.518819179e+00  1.6579191e-04
4.518849305e+00  1.6780318e-04
4.518879430e+00  1.6960777e-04
4.518909556e+00  1.7117342e-04
4.518939682e+00  1.7246362e-04
4.518969809e+00  1.7343707e-04
4.518999935e+00  1.7404728e-04
4.519030062e+00  1.7424223e-04
4.519060189e+00  1.7396383e-04
4.519090316e+00  1.7314752e-04
4.519120443e+00  1.7172223e-04
4.519150570e+00  1.6961153e-04
4.519180698e+00  1.6673754e-04
4.519210826e+00  1.6302976e-04
4.519240954e+00  1.5844111e-04
4.519271082e+00  1.5297262e-04
4.519301211e+00  1.4670555e-04
4.519331339e+00  1.3983535e-04
