# Wave/freq Total
4.500000000e+00  1.7333169e-14
4.500030000e+00  3.3899925e-14
4.500060000e+00  6.4860241e-14
4.500090001e+00  1.2147609e-13
4.500120001e+00  2.2284769e-13
4.500150002e+00  4.0068033e-13
4.500180003e+00  7.0651523e-13
4.500210004e+00  1.2224571e-12
4.500240006e+00  2.0767369e-12
4.500270007e+00  3.4658342e-12
4.500300009e+00  5.6852117e-12
4.500330011e+00  9.1709832e-12
4.500360013e+00  1.4550211e-11
4.500390016e+00  2.2725605e-11
4.500420018e+00  3.4948773e-11
4.500450021e+00  5.2936274e-11
4.500480024e+00  7.8993357e-11
4.500510027e+00  1.1615449e-10
4.500540031e+00  1.6833606e-10
4.500570034e+00  2.4050305e-10
4.500600038e+00  3.3886370e-10
4.500630042e+00  4.7112969e-10
4.500660046e+00  6.4689943e-10
4.500690051e+00  8.7825592e-10
4.500720055e+00  1.1806508e-09
4.500750060e+00  1.5740994e-09
4.500780065e+00  2.0845932e-09
4.500810070e+00  2.7455239e-09
4.500840076e+00  3.5987858e-09
4.500870081e+00  4.6951907e-09
4.500900087e+00  6.0940972e-09
4.500930093e+00  7.8622944e-09
4.500960099e+00  1.0072560e-08
4.500990106e+00  1.2802450e-08
4.501020112e+00  1.6133844e-08
4.501050119e+00  2.0153516e-08
4.501080126e+00  2.4954657e-08
4.501110133e+00  3.0639184e-08
4.501140141e+00  3.7320320e-08
4.501170148e+00  4.5125406e-08
4.501200156e+00  5.4198626e-08
4.501230164e+00  6.4703362e-08
4.501260172e+00  7.6823619e-08
4.501290181e+00  9.0763736e-08
4.501320189e+00  1.0674577e-07
4.501350198e+00  1.2500452e-07
4.501380207e+00  1.4578131e-07
4.501410216e+00  1.6931821e-07
4.501440226e+00  1.9585520e-07
4.501470235e+00  2.2563144e-07
4.501500245e+00  2.5889079e-07
4.501530255e+00  2.9588949e-07
4.501560265e+00  3.3690307e-07
4.501590276e+00  3.8222917e-07
4.501620286e+00  4.3218451e-07
4.501650297e+00  4.8709653e-07
4.501680308e+00  5.4729219e-07
4.501710319e+00  6.1308757e-07
4.501740331e+00  6.8478146e-07
4.501770342e+00  7.6265477e-07
4.501800354e+00  8.4697489e-07
4.501830366e+00  9.3800301e-07
4.501860378e+00  1.0360014e-06
4.501890391e+00  1.1412382e-06
4.501920403e+00  1.2539894e-06
4.501950416e+00  1.3745366e-06
4.501980429e+00  1.5031637e-06
4.502010442e+00  1.6401523e-06
4.502040456e+00  1.7857774e-06
4.502070469e+00  1.9403036e-06
4.502100483e+00  2.1039830e-06
4.502130497e+00  2.2770532e-06
4.502160511e+00  2.4597373e-06
4.502190526e+00  2.6522431e-06
4.502220540e+00  2.8547645e-06
4.502250555e+00  3.0674816e-06
4.502280570e+00  3.2905618e-06
4.502310585e+00  3.5241597e-06
4.502340601e+00  3.7684170e-06
4.502370616e+00  4.0234612e-06
4.502400632e+00  4.2894043e-06
4.502430648e+00  4.5663406e-06
4.502460664e+00  4.8543444e-06
4.502490681e+00  5.1534680e-06
4.502520697e+00  5.4637397e-06
4.502550714e+00  5.7851620e-06
4.502580731e+00  6.1177110e-06
4.502610748e+00  6.4613364e-06
4.502640766e+00  6.8159632e-06
4.502670783e+00  7.1814943e-06
4.502700801e+00  7.5578150e-06
4.502730819e+00  7.9447968e-06
4.502760837e+00  8.3423018e-06
4.502790856e+00  8.7501844e-06
4.502820874e+00  9.1682912e-06
4.502850893e+00  9.5964566e-06
4.502880912e+00  1.0034496e-05
4.502910931e+00  1.0482191e-05
4.502940951e+00  1.0939275e-05
4.502970970e+00  1.1405413e-05
4.503000990e+00  1.1880177e-05
4.503031010e+00  1.2363022e-05
4.503061030e+00  1.2853277e-05
4.503091051e+00  1.3350142e-05
4.503121071e+00  1.3852704e-05
4.503151092e+00  1.4359986e-05
4.503181113e+00  1.4871008e-05
4.503211134e+00  1.5384867e-05
4.503241156e+00  1.5900813e-05
4.503271177e+00  1.6418315e-05
4.503301199e+00  1.6937097e-05
4.503331221e+00  1.7457141e-05
4.503361244e+00  1.7978668e-05
4.503391266e+00  1.8502091e-05
4.503421289e+00  1.9027978e-05
4.503451311e+00  1.9557011e-05
4.503481334e+00  2.0089968e-05
4.503511358e+00  2.0627727e-05
4.503541381e+00  2.1171269e-05
4.503571405e+00  2.1721690e-05
4.503601428e+00  2.2280181e-05
4.503631452e+00  2.2847982e-05
4.503661477e+00  2.3426295e-05
4.503691501e+00  2.4016179e-05
4.503721526e+00  2.4618428e-05
4.503751550e+00  2.5233485e-05
4.503781575e+00  2.5861395e-05
4.503811601e+00  2.6501814e-05
4.503841626e+00  2.7154074e-05
4.503871652e+00  2.7817269e-05
4.503901677e+00  2.8490337e-05
4.503931703e+00  2.9172117e-05
4.503961730e+00  2.9861358e-05
4.503991756e+00  3.0556691e-05
4.504021783e+00  3.1256579e-05
4.504051810e+00  3.1959274e-05
4.504081837e+00  3.2662810e-05
4.504111864e+00  3.3365052e-05
4.504141891e+00  3.4063799e-05
4.504171919e+00  3.4756933e-05
4.504201947e+00  3.5442580e-05
4.504231975e+00  3.6119245e-05
4.504262003e+00  3.6785884e-05
4.504292031e+00  3.7441907e-05
4.504322060e+00  3.8087098e-05
4.504352089e+00  3.8721505e-05
4.504382118e+00  3.9345311e-05
4.504412147e+00  3.9958742e-05
4.504442176e+00  4.0562033e-05
4.504472206e+00  4.1155455e-05
4.504502236e+00  4.1739391e-05
4.504532266e+00  4.2314437e-05
4.504562296e+00  4.2881473e-05
4.504592326e+00  4.3441677e-05
4.504622357e+00  4.3996438e-05
4.504652388e+00  4.4547145e-05
4.504682419e+00  4.5094890e-05
4.504712450e+00  4.5640126e-05
4.504742481e+00  4.6182385e-05
4.504772513e+00  4.6720150e-05
4.504802545e+00  4.7250992e-05
4.504832577e+00  4.7771985e-05
4.504862609e+00  4.8280369e-05
4.504892642e+00  4.8774331e-05
4.504922674e+00  4.9253693e-05
4.504952707e+00  4.9720289e-05
4.504982740e+00  5.0177847e-05
4.505012773e+00  5.0631279e-05
4.505042807e+00  5.1085475e-05
4.505072840e+00  5.1543839e-05
4.505102874e+00  5.2006952e-05
4.505132908e+00  5.2471728e-05
4.505162942e+00  5.2931325e-05
4.505192977e+00  5.3375859e-05
4.505223011e+00  5.3793713e-05
4.505253046e+00  5.4173092e-05
4.505283081e+00  5.4503425e-05
4.505313116e+00  5.4776282e-05
4.505343152e+00  5.4985641e-05
4.505373187e+00  5.5127511e-05
4.505403223e+00  5.5199021e-05
4.505433259e+00  5.5197222e-05
4.505463296e+00  5.5117924e-05
4.505493332e+00  5.4954799e-05
4.505523369e+00  5.4698996e-05
4.505553405e+00  5.4339351e-05
4.505583442e+00  5.3863226e-05
4.505613480e+00  5.3257949e-05
4.505643517e+00  5.2512899e-05
4.505673555e+00  5.1622355e-05
4.505703593e+00  5.0589214e-05
4.505733631e+00  4.9429455e-05
4.505763669e+00  4.8176751e-05
4.505793707e+00  4.6886009e-05
4.505823746e+00  4.5634138e-05
4.505853785e+00  4.4516405e-05
4.505883824e+00  4.3637579e-05
4.505913863e+00  4.3098581e-05
4.505943902e+00  4.2981083e-05
4.505973942e+00  4.3333723e-05
4.506003982e+00  4.4163646e-05
4.506034022e+00  4.5435723e-05
4.506064062e+00  4.7079611e-05
4.506094102e+00  4.9002499e-05
4.506124143e+00  5.1103996e-05
4.506154184e+00  5.3289506e-05
4.506184225e+00  5.5479526e-05
4.506214266e+00  5.7613962e-05
4.506244308e+00  5.9652083e-05
4.506274349e+00  6.1569653e-05
4.506304391e+00  6.3354900e-05
4.506334433e+00  6.5004667e-05
4.506364475e+00  6.6521431e-05
4.506394518e+00  6.7911344e-05
4.506424560e+00  6.9183055e-05
4.506454603e+00  7.0346894e-05
4.506484646e+00  7.1414284e-05
4.506514689e+00  7.2396570e-05
4.506544733e+00  7.3303861e-05
4.506574777e+00  7.4143514e-05
4.506604820e+00  7.4918553e-05
4.506634864e+00  7.5626180e-05
4.506664909e+00  7.6256495e-05
4.506694953e+00  7.6791601e-05
4.506724998e+00  7.7205540e-05
4.506755042e+00  7.7465765e-05
4.506785088e+00  7.7537146e-05
4.506815133e+00  7.7389356e-05
4.506845178e+00  7.7007633e-05
4.506875224e+00  7.6405217e-05
4.506905270e+00  7.5633941e-05
4.506935316e+00  7.4788184e-05
4.506965362e+00  7.3997951e-05
4.506995408e+00  7.3409706e-05
4.507025455e+00  7.3158048e-05
4.507055502e+00  7.3335609e-05
4.507085549e+00  7.3970549e-05
4.507115596e+00  7.5019302e-05
4.507145644e+00  7.6377241e-05
4.507175691e+00  7.7903745e-05
4.507205739e+00  7.9453513e-05
4.507235787e+00  8.0904720e-05
4.507265835e+00  8.2176973e-05
4.507295884e+00  8.3236349e-05
4.507325932e+00  8.4089173e-05
4.507355981e+00  8.4768913e-05
4.507386030e+00  8.5321151e-05
4.507416080e+00  8.5790610e-05
4.507446129e+00  8.6212468e-05
4.507476179e+00  8.6608511e-05
4.507506228e+00  8.6987432e-05
4.507536278e+00  8.7347885e-05
4.507566329e+00  8.7682730e-05
4.507596379e+00  8.7983095e-05
4.507626430e+00  8.8241358e-05
4.507656481e+00  8.8452715e-05
4.507686532e+00  8.8615474e-05
4.507716583e+00  8.8730409e-05
4.507746634e+00  8.8800034e-05
4.507776686e+00  8.8827555e-05
4.507806738e+00  8.8816296e-05
4.507836790e+00  8.8769360e-05
4.507866842e+00  8.8689543e-05
4.507896895e+00  8.8579375e-05
4.507926947e+00  8.8441214e-05
4.507957000e+00  8.8277327e-05
4.507987053e+00  8.8089901e-05
4.508017106e+00  8.7881009e-05
4.508047160e+00  8.7652519e-05
4.508077213e+00  8.7405983e-05
4.508107267e+00  8.7142572e-05
4.508137321e+00  8.6863042e-05
4.508167376e+00  8.6567818e-05
4.508197430e+00  8.6257189e-05
4.508227485e+00  8.5931615e-05
4.508257540e+00  8.5592088e-05
4.508287595e+00  8.5240437e-05
4.508317650e+00  8.4879451e-05
4.508347705e+00  8.4512696e-05
4.508377761e+00  8.4143988e-05
4.508407817e+00  8.3776616e-05
4.508437873e+00  8.3412505e-05
4.508467929e+00  8.3051593e-05
4.508497986e+00  8.2691641e-05
4.508528042e+00  8.2328550e-05
4.508558099e+00  8.1957093e-05
4.508588156e+00  8.1571845e-05
4.508618213e+00  8.1168009e-05
4.508648271e+00  8.0741945e-05
4.508678329e+00  8.0291303e-05
4.508708386e+00  7.9814840e-05
4.508738444e+00  7.9312013e-05
4.508768503e+00  7.8782581e-05
4.508798561e+00  7.8226306e-05
4.508828620e+00  7.7642815e-05
4.508858679e+00  7.7031632e-05
4.508888738e+00  7.6392291e-05
4.508918797e+00  7.5724471e-05
4.508948856e+00  7.5028093e-05
4.508978916e+00  7.4303374e-05
4.509008976e+00  7.3550884e-05
4.509039036e+00  7.2771667e-05
4.509069096e+00  7.1967480e-05
4.509099157e+00  7.1141140e-05
4.509129217e+00  7.0296861e-05
4.509159278e+00  6.9440397e-05
4.509189339e+00  6.8578793e-05
4.509219401e+00  6.7719660e-05
4.509249462e+00  6.6870035e-05
4.509279524e+00  6.6035117e-05
4.509309586e+00  6.5217246e-05
4.509339648e+00  6.4415479e-05
4.509369710e+00  6.3625905e-05
4.509399772e+00  6.2842596e-05
4.509429835e+00  6.2058889e-05
4.509459898e+00  6.1268608e-05
4.509489961e+00  6.0466920e-05
4.509520024e+00  5.9650706e-05
4.509550088e+00  5.8818476e-05
4.509580151e+00  5.7970017e-05
4.509610215e+00  5.7105940e-05
4.509640279e+00  5.6227282e-05
4.509670344e+00  5.5335232e-05
4.509700408e+00  5.4430974e-05
4.509730473e+00  5.3515631e-05
4.509760538e+00  5.2590247e-05
4.509790603e+00  5.1655776e-05
4.509820668e+00  5.0713064e-05
4.509850733e+00  4.9762820e-05
4.509880799e+00  4.8805584e-05
4.509910865e+00  4.7841694e-05
4.509940931e+00  4.6871288e-05
4.509970997e+00  4.5894325e-05
4.510001064e+00  4.4910615e-05
4.510031130e+00  4.3919869e-05
4.510061197e+00  4.2921732e-05
4.510091264e+00  4.1915800e-05
4.510121332e+00  4.0901634e-05
4.510151399e+00  3.9878770e-05
4.510181467e+00  3.8846789e-05
4.510211535e+00  3.7805446e-05
4.510241603e+00  3.6754911e-05
4.510271671e+00  3.5696050e-05
4.510301739e+00  3.4630701e-05
4.510331808e+00  3.3561786e-05
4.510361877e+00  3.2493169e-05
4.510391946e+00  3.1429207e-05
4.510422015e+00  3.0374060e-05
4.510452085e+00  2.9330967e-05
4.510482155e+00  2.8301709e-05
4.510512224e+00  2.7286496e-05
4.510542295e+00  2.6284337e-05
4.510572365e+00  2.5293788e-05
4.510602435e+00  2.4313837e-05
4.510632506e+00  2.3344603e-05
4.510662577e+00  2.2387630e-05
4.510692648e+00  2.1445663e-05
4.510722719e+00  2.0522021e-05
4.510752791e+00  1.9619780e-05
4.510782862e+00  1.8741058e-05
4.510812934e+00  1.7886604e-05
4.510843006e+00  1.7055782e-05
4.510873079e+00  1.6246910e-05
4.510903151e+00  1.5457788e-05
4.510933224e+00  1.4686241e-05
4.510963297e+00  1.3930546e-05
4.510993370e+00  1.3189663e-05
4.511023443e+00  1.2463286e-05
4.511053517e+00  1.1751764e-05
4.511083590e+00  1.1055946e-05
4.511113664e+00  1.0377002e-05
4.511143738e+00  9.7162729e-06
4.511173813e+00  9.0751222e-06
4.511203887e+00  8.4548422e-06
4.511233962e+00  7.8565805e-06
4.511264037e+00  7.2813000e-06
4.511294112e+00  6.7297642e-06
4.511324187e+00  6.2025447e-06
4.511354263e+00  5.7000479e-06
4.511384338e+00  5.2225511e-06
4.511414414e+00  4.7702381e-06
4.511444490e+00  4.3432291e-06
4.511474566e+00  3.9415806e-06
4.511504643e+00  3.5652637e-06
4.511534720e+00  3.2141199e-06
4.511564797e+00  2.8878108e-06
4.511594874e+00  2.5857825e-06
4.511624951e+00  2.3072604e-06
4.511655028e+00  2.0512793e-06
4.511685106e+00  1.8167441e-06
4.511715184e+00  1.6025002e-06
4.511745262e+00  1.4073971e-06
4.511775340e+00  1.2303291e-06
4.511805419e+00  1.0702503e-06
4.511835498e+00  9.2616763e-07
4.511865577e+00  7.9712209e-07
4.511895656e+00  6.8216887e-07
4.511925735e+00  5.8036233e-07
4.511955815e+00  4.9074946e-07
4.511985894e+00  4.1237096e-07
4.512015974e+00  3.4426796e-07
4.512046054e+00  2.8549197e-07
4.512076135e+00  2.3511573e-07
4.512106215e+00  1.9224396e-07
4.512136296e+00  1.5602287e-07
4.512166377e+00  1.2564808e-07
4.512196458e+00  1.0037081e-07
4.512226539e+00  7.9501722e-08
4.512256621e+00  6.2413707e-08
4.512286702e+00  4.8541856e-08
4.512316784e+00  3.7382528e-08
4.512346866e+00  2.8490966e-08
4.512376949e+00  2.1477989e-08
4.512407031e+00  1.6006100e-08
4.512437114e+00  1.1785290e-08
4.512467197e+00  8.5687633e-09
4.512497280e+00  6.1487101e-09
4.512527363e+00  4.3521848e-09
4.512557447e+00  3.0371120e-09
4.512587530e+00  2.0884217e-09
4.512617614e+00  1.4143332e-09
4.512647698e+00  9.4282181e-10
4.512677783e+00  6.1832082e-10
4.512707867e+00  3.9871227e-10
4.512737952e+00  2.5264692e-10
4.512768037e+00  1.5722314e-10
4.512798122e+00  9.6028192e-11
4.512828207e+00  5.7528804e-11
4.512858293e+00  3.3782657e-11
4.512888379e+00  1.9432781e-11
4.512918465e+00  1.0942498e-11
4.512948551e+00  6.0275547e-12
4.512978637e+00  3.2456555e-12
4.513008724e+00  1.7072152e-12
4.513038810e+00  8.7655933e-13
4.513068897e+00  4.3899075e-13
4.513098984e+00  2.1427391e-13
4.513129072e+00  1.0185026e-13
4.513159159e+00  4.7102029e-14
4.513189247e+00  2.1171857e-14
4.513219335e+00  9.2386409e-15
4.513249423e+00  3.9082362e-15
4.513279511e+00  1.6001165e-15
4.513309600e+00  6.3276963e-16
4.513339689e+00  2.4110792e-16
4.513369777e+00  8.8267329e-17
4.513399867e+00  3.0943034e-17
4.513429956e+00  1.0351231e-17
4.513460045e+00  3.3372604e-18
4.513490135e+00  1.0022326e-18
4.513520225e+00  2.8076935e-19
4.513550315e+00  7.2959906e-20
4.513580406e+00  1.7430130e-20
4.513610496e+00  3.7888265e-21
4.513640587e+00  7.4055869e-22
4.513670678e+00  1.2839905e-22
4.513700769e+00  1.9434124e-23
4.513730860e+00  2.5169638e-24
4.513760952e+00  2.7065528e-25
4.513791044e+00  2.2630279e-26
4.513821136e+00  1.1466133e-27
4.513851228e+00  2.4113757e-29
4.513881320e+00  4.5771244e-30
4.513911413e+00  1.7105027e-31
4.513941505e+00  4.1304675e-33
4.513971598e+00  6.5302860e-35
4.514001691e+00  6.4078234e-37
4.514031785e+00  1.6907789e-38
4.514061878e+00  2.1328319e-36
4.514091972e+00  2.0260735e-34
4.514122066e+00  1.2191245e-32
4.514152160e+00  4.9284132e-31
4.514182254e+00  1.4075369e-29
4.514212349e+00  2.9622261e-28
4.514242444e+00  4.7706124e-27
4.514272539e+00  6.0717495e-26
4.514302634e+00  6.2786755e-25
4.514332729e+00  5.4036215e-24
4.514362825e+00  3.9525689e-23
4.514392920e+00  2.5028093e-22
4.514423016e+00  1.3938578e-21
4.514453113e+00  6.9155049e-21
4.514483209e+00  3.1076159e-20
4.514513306e+00  1.2754488e-19
4.514543402e+00  4.8285944e-19
4.514573499e+00  1.7007912e-18
4.514603596e+00  5.6159521e-18
4.514633694e+00  1.7497471e-17
4.514663791e+00  5.1731346e-17
4.514693889e+00  1.4583811e-16
4.514723987e+00  3.9366540e-16
4.514754085e+00  1.0209665e-15
4.514784184e+00  2.5513753e-15
4.514814282e+00  6.1583214e-15
4.514844381e+00  1.4386315e-14
4.514874480e+00  3.2580881e-14
4.514904579e+00  7.1616635e-14
4.514934678e+00  1.5288379e-13
4.514964778e+00  3.1785941e-13
4.514994878e+00  6.4375297e-13
4.515024978e+00  1.2711484e-12
4.515055078e+00  2.4493177e-12
4.515085178e+00  4.6093238e-12
4.515115279e+00  8.4794596e-12
4.515145380e+00  1.5262206e-11
4.515175480e+00  2.6900599e-11
4.515205582e+00  4.6471026e-11
4.515235683e+00  7.8746199e-11
4.515265785e+00  1.3098750e-10
4.515295886e+00  2.1402819e-10
4.515325988e+00  3.4371565e-10
4.515356091e+00  5.4277653e-10
4.515386193e+00  8.4315861e-10
4.515416295e+00  1.2888857e-09
4.515446398e+00  1.9394401e-09
4.515476501e+00  2.8736659e-09
4.515506604e+00  4.1941615e-09
4.515536708e+00  6.0321170e-09
4.515566811e+00  8.5525325e-09
4.515596915e+00  1.1959748e-08
4.515627019e+00  1.6503200e-08
4.515657123e+00  2.2483327e-08
4.515687228e+00  3.0257499e-08
4.515717332e+00  4.0245861e-08
4.515747437e+00  5.2936872e-08
4.515777542e+00  6.8892322e-08
4.515807647e+00  8.8751469e-08
4.515837753e+00  1.1323394e-07
4.515867858e+00  1.4314102e-07
4.515897964e+00  1.7935484e-07
4.515928070e+00  2.2283539e-07
4.515958176e+00  2.7461477e-07
4.515988283e+00  3.3578880e-07
4.516018389e+00  4.0750549e-07
4.516048496e+00  4.9095039e-07
4.516078603e+00  5.8732837e-07
4.516108710e+00  6.9784153e-07
4.516138817e+00  8.2366286e-07
4.516168925e+00  9.6590527e-07
4.516199033e+00  1.1255854e-06
4.516229141e+00  1.3035822e-06
4.516259249e+00  1.5005894e-06
4.516289357e+00  1.7170616e-06
4.516319466e+00  1.9531541e-06
4.516349575e+00  2.2086551e-06
4.516379684e+00  2.4829102e-06
4.516409793e+00  2.7747414e-06
4.516439902e+00  3.0823566e-06
4.516470012e+00  3.4032671e-06
4.516500122e+00  3.7341949e-06
4.516530232e+00  4.0709970e-06
4.516560342e+00  4.4086101e-06
4.516590452e+00  4.7410289e-06
4.516620563e+00  5.0613446e-06
4.516650674e+00  5.3618783e-06
4.516680785e+00  5.6344692e-06
4.516710896e+00  5.8709987e-06
4.516741007e+00  6.0642443e-06
4.516771119e+00  6.2091479e-06
4.516801231e+00  6.3045100e-06
4.516831343e+00  6.3549924e-06
4.516861455e+00  6.3731182e-06
4.516891567e+00  6.3807645e-06
4.516921680e+00  6.4095444e-06
4.516951793e+00  6.4995494e-06
4.516981906e+00  6.6962496e-06
4.517012019e+00  7.0458299e-06
4.517042133e+00  7.5897729e-06
4.517072246e+00  8.3598345e-06
4.517102360e+00  9.3745317e-06
4.517132474e+00  1.0637881e-05
4.517162588e+00  1.2140492e-05
4.517192703e+00  1.3862499e-05
4.517222817e+00  1.5777425e-05
4.517252932e+00  1.7856048e-05
4.517283047e+00  2.0069566e-05
4.517313162e+00  2.2391799e-05
4.517343278e+00  2.4800463e-05
4.517373393e+00  2.7277766e-05
4.517403509e+00  2.9810552e-05
4.517433625e+00  3.2390135e-05
4.517463741e+00  3.5011801e-05
4.517493858e+00  3.7673965e-05
4.517523974e+00  4.0376997e-05
4.517554091e+00  4.3121885e-05
4.517584208e+00  4.5908992e-05
4.517614326e+00  4.8737207e-05
4.517644443e+00  5.1603657e-05
4.517674561e+00  5.4503993e-05
4.517704678e+00  5.7433054e-05
4.517734796e+00  6.0385623e-05
4.517764915e+00  6.3356996e-05
4.517795033e+00  6.6343224e-05
4.517825152e+00  6.9341039e-05
4.517855271e+00  7.2347619e-05
4.517885390e+00  7.5360344e-05
4.517915509e+00  7.8376720e-05
4.517945628e+00  8.1394481e-05
4.517975748e+00  8.4411843e-05
4.518005868e+00  8.7427772e-05
4.518035988e+00  9.0442135e-05
4.518066108e+00  9.3455646e-05
4.518096228e+00  9.6469593e-05
4.518126349e+00  9.9485397e-05
4.518156470e+00  1.0250413e-04
4.518186591e+00  1.0552613e-04
4.518216712e+00  1.0855079e-04
4.518246834e+00  1.1157658e-04
4.518276955e+00  1.1460129e-04
4.518307077e+00  1.1762234e-04
4.518337199e+00  1.2063710e-04
4.518367321e+00  1.2364319e-04
4.518397444e+00  1.2663851e-04
4.518427567e+00  1.2962114e-04
4.518457689e+00  1.3258901e-04
4.518487812e+00  1.3553945e-04
4.518517936e+00  1.3846870e-04
4.518548059e+00  1.4137146e-04
4.518578183e+00  1.4424054e-04
4.518608307e+00  1.4706676e-04
4.518638431e+00  1.4983890e-04
4.518668555e+00  1.5254386e-04
4.518698679e+00  1.5516674e-04
4.518728804e+00  1.5769095e-04
4.518758929e+00  1.6009807e-04
4.518789054e+00  1.6236765e-04
4.518819179e+00  1.6447681e-04
4.518849305e+00  1.6639971e-04
4.518879430e+00  1.6810709e-04
4.518909556e+00  1.6956565e-04
4.518939682e+00  1.7073777e-04
4.518969809e+00  1.7158107e-04
4.518999935e+00  1.7204798e-04
4.519030062e+00  1.7208553e-04
4.519060189e+00  1.7163502e-04
4.519090316e+00  1.7063173e-04
4.519120443e+00  1.6900522e-04
4.519150570e+00  1.6668071e-04
4.519180698e+00  1.6358338e-04
4.519210826e+00  1.5964727e-04
4.519240954e+00  1.5483135e-04
4.519271082e+00  1.4914373e-04
4.519301211e+00  1.4267292e-04
4.519331339e+00  1.3562059e-04
