# Wave/freq Total
4.500000000e+00  1.7349066e-14
4.500030000e+00  3.3931561e-14
4.500060000e+00  6.4921913e-14
4.500090001e+00  1.2159395e-13
4.500120001e+00  2.2306871e-13
4.500150002e+00  4.0108732e-13
4.500180003e+00  7.0725173e-13
4.500210004e+00  1.2237680e-12
4.500240006e+00  2.0790337e-12
4.500270007e+00  3.4697989e-12
4.500300009e+00  5.6919618e-12
4.500330011e+00  9.1823510e-12
4.500360013e+00  1.4569229e-11
4.500390016e+00  2.2757085e-11
4.500420018e+00  3.5000532e-11
4.500450021e+00  5.3021037e-11
4.500480024e+00  7.9131876e-11
4.500510027e+00  1.1638055e-10
4.500540031e+00  1.6870430e-10
4.500570034e+00  2.4110035e-10
4.500600038e+00  3.3982476e-10
4.500630042e+00  4.7265617e-10
4.500660046e+00  6.4928022e-10
4.500690051e+00  8.8188366e-10
4.500720055e+00  1.1860275e-09
4.500750060e+00  1.5818229e-09
4.500780065e+00  2.0953196e-09
4.500810070e+00  2.7599048e-09
4.500840076e+00  3.6173905e-09
4.500870081e+00  4.7184306e-09
4.500900087e+00  6.1221742e-09
4.500930093e+00  7.8951948e-09
4.500960099e+00  1.0110100e-08
4.500990106e+00  1.2844373e-08
4.501020112e+00  1.6179935e-08
4.501050119e+00  2.0203717e-08
4.501080126e+00  2.5009155e-08
4.501110133e+00  3.0698445e-08
4.501140141e+00  3.7385086e-08
4.501170148e+00  4.5196656e-08
4.501200156e+00  5.4277528e-08
4.501230164e+00  6.4791229e-08
4.501260172e+00  7.6921886e-08
4.501290181e+00  9.0873957e-08
4.501320189e+00  1.0686962e-07
4.501350198e+00  1.2514382e-07
4.501380207e+00  1.4593803e-07
4.501410216e+00  1.6949448e-07
4.501440226e+00  1.9605333e-07
4.501470235e+00  2.2585391e-07
4.501500245e+00  2.5914023e-07
4.501530255e+00  2.9616874e-07
4.501560265e+00  3.3721518e-07
4.501590276e+00  3.8257738e-07
4.501620286e+00  4.3257231e-07
4.501650297e+00  4.8752767e-07
4.501680308e+00  5.4777066e-07
4.501710319e+00  6.1361759e-07
4.501740331e+00  6.8536748e-07
4.501770342e+00  7.6330144e-07
4.501800354e+00  8.4768708e-07
4.501830366e+00  9.3878581e-07
4.501860378e+00  1.0368601e-06
4.501890391e+00  1.1421785e-06
4.501920403e+00  1.2550169e-06
4.501950416e+00  1.3756575e-06
4.501980429e+00  1.5043843e-06
4.502010442e+00  1.6414792e-06
4.502040456e+00  1.7872172e-06
4.502070469e+00  1.9418634e-06
4.502100483e+00  2.1056699e-06
4.502130497e+00  2.2788746e-06
4.502160511e+00  2.4617005e-06
4.502190526e+00  2.6543559e-06
4.502220540e+00  2.8570348e-06
4.502250555e+00  3.0699174e-06
4.502280570e+00  3.2931713e-06
4.502310585e+00  3.5269513e-06
4.502340601e+00  3.7713992e-06
4.502370616e+00  4.0266428e-06
4.502400632e+00  4.2927940e-06
4.502430648e+00  4.5699474e-06
4.502460664e+00  4.8581772e-06
4.502490681e+00  5.1575360e-06
4.502520697e+00  5.4680519e-06
4.502550714e+00  5.7897276e-06
4.502580731e+00  6.1225392e-06
4.502610748e+00  6.4664363e-06
4.502640766e+00  6.8213439e-06
4.502670783e+00  7.1871651e-06
4.502700801e+00  7.5637849e-06
4.502730819e+00  7.9510749e-06
4.502760837e+00  8.3488969e-06
4.502790856e+00  8.7571053e-06
4.502820874e+00  9.1755467e-06
4.502850893e+00  9.6040555e-06
4.502880912e+00  1.0042447e-05
4.502910931e+00  1.0490502e-05
4.502940951e+00  1.0947956e-05
4.502970970e+00  1.1414473e-05
4.503000990e+00  1.1889622e-05
4.503031010e+00  1.2372862e-05
4.503061030e+00  1.2863520e-05
4.503091051e+00  1.3360794e-05
4.503121071e+00  1.3863773e-05
4.503151092e+00  1.4371477e-05
4.503181113e+00  1.4882926e-05
4.503211134e+00  1.5397216e-05
4.503241156e+00  1.5913596e-05
4.503271177e+00  1.6431535e-05
4.503301199e+00  1.6950756e-05
4.503331221e+00  1.7471241e-05
4.503361244e+00  1.7993211e-05
4.503391266e+00  1.8517080e-05
4.503421289e+00  1.9043416e-05
4.503451311e+00  1.9572902e-05
4.503481334e+00  2.0106317e-05
4.503511358e+00  2.0644540e-05
4.503541381e+00  2.1188554e-05
4.503571405e+00  2.1739454e-05
4.503601428e+00  2.2298434e-05
4.503631452e+00  2.2866733e-05
4.503661477e+00  2.3445556e-05
4.503691501e+00  2.4035962e-05
4.503721526e+00  2.4638746e-05
4.503751550e+00  2.5254351e-05
4.503781575e+00  2.5882822e-05
4.503811601e+00  2.6523816e-05
4.503841626e+00  2.7176665e-05
4.503871652e+00  2.7840460e-05
4.503901677e+00  2.8514140e-05
4.503931703e+00  2.9196543e-05
4.503961730e+00  2.9886416e-05
4.503991756e+00  3.0582390e-05
4.504021783e+00  3.1282926e-05
4.504051810e+00  3.1986275e-05
4.504081837e+00  3.2690470e-05
4.504111864e+00  3.3393374e-05
4.504141891e+00  3.4092783e-05
4.504171919e+00  3.4786580e-05
4.504201947e+00  3.5472889e-05
4.504231975e+00  3.6150212e-05
4.504262003e+00  3.6817507e-05
4.504292031e+00  3.7474182e-05
4.504322060e+00  3.8120021e-05
4.504352089e+00  3.8755073e-05
4.504382118e+00  3.9379520e-05
4.504412147e+00  3.9993589e-05
4.504442176e+00  4.0597514e-05
4.504472206e+00  4.1191566e-05
4.504502236e+00  4.1776128e-05
4.504532266e+00  4.2351797e-05
4.504562296e+00  4.2919455e-05
4.504592326e+00  4.3480280e-05
4.504622357e+00  4.4035662e-05
4.504652388e+00  4.4586993e-05
4.504682419e+00  4.5135366e-05
4.504712450e+00  4.5681236e-05
4.504742481e+00  4.6224132e-05
4.504772513e+00  4.6762537e-05
4.504802545e+00  4.7294020e-05
4.504832577e+00  4.7815652e-05
4.504862609e+00  4.8324669e-05
4.504892642e+00  4.8819258e-05
4.504922674e+00  4.9299238e-05
4.504952707e+00  4.9766445e-05
4.504982740e+00  5.0224610e-05
4.505012773e+00  5.0678647e-05
4.505042807e+00  5.1133448e-05
4.505072840e+00  5.1592421e-05
4.505102874e+00  5.2056141e-05
4.505132908e+00  5.2521517e-05
4.505162942e+00  5.2981698e-05
4.505192977e+00  5.3426786e-05
4.505223011e+00  5.3845152e-05
4.505253046e+00  5.4224992e-05
4.505283081e+00  5.4555726e-05
4.505313116e+00  5.4828923e-05
4.505343152e+00  5.5038559e-05
4.505373187e+00  5.5180647e-05
4.505403223e+00  5.5252322e-05
4.505433259e+00  5.5250640e-05
4.505463296e+00  5.5171412e-05
4.505493332e+00  5.5008309e-05
4.505523369e+00  5.4752474e-05
4.505553405e+00  5.4392735e-05
4.505583442e+00  5.3916442e-05
4.505613480e+00  5.3310907e-05
4.505643517e+00  5.2565499e-05
4.505673555e+00  5.1674487e-05
4.505703593e+00  5.0640771e-05
4.505733631e+00  4.9480345e-05
4.505763669e+00  4.8226918e-05
4.505793707e+00  4.6935461e-05
4.505823746e+00  4.5682972e-05
4.505853785e+00  4.4564831e-05
4.505883824e+00  4.3685941e-05
4.505913863e+00  4.3147351e-05
4.505943902e+00  4.3030845e-05
4.505973942e+00  4.3385141e-05
4.506003982e+00  4.4217420e-05
4.506034022e+00  4.5492541e-05
4.506064062e+00  4.7140114e-05
4.506094102e+00  4.9067252e-05
4.506124143e+00  5.1173482e-05
4.506154184e+00  5.3364133e-05
4.506184225e+00  5.5559646e-05
4.506214266e+00  5.7699894e-05
4.506244308e+00  5.9744140e-05
4.506274349e+00  6.1668164e-05
4.506304391e+00  6.3460233e-05
4.506334433e+00  6.5117249e-05
4.506364475e+00  6.6641768e-05
4.506394518e+00  6.8040038e-05
4.506424560e+00  6.9320832e-05
4.506454603e+00  7.0494626e-05
4.506484646e+00  7.1573025e-05
4.506514689e+00  7.2567589e-05
4.506544733e+00  7.3488691e-05
4.506574777e+00  7.4344010e-05
4.506604820e+00  7.5136968e-05
4.506634864e+00  7.5865269e-05
4.506664909e+00  7.6519639e-05
4.506694953e+00  7.7082951e-05
4.506724998e+00  7.7530136e-05
4.506755042e+00  7.7829578e-05
4.506785088e+00  7.7946946e-05
4.506815133e+00  7.7852306e-05
4.506845178e+00  7.7530533e-05
4.506875224e+00  7.6993397e-05
4.506905270e+00  7.6289925e-05
4.506935316e+00  7.5510371e-05
4.506965362e+00  7.4779668e-05
4.506995408e+00  7.4238974e-05
4.507025455e+00  7.4018269e-05
4.507055502e+00  7.4207154e-05
4.507085549e+00  7.4832970e-05
4.507115596e+00  7.5853698e-05
4.507145644e+00  7.7168256e-05
4.507175691e+00  7.8640819e-05
4.507205739e+00  8.0131203e-05
4.507235787e+00  8.1522209e-05
4.507265835e+00  8.2737013e-05
4.507295884e+00  8.3744000e-05
4.507325932e+00  8.4550623e-05
4.507355981e+00  8.5190564e-05
4.507386030e+00  8.5709026e-05
4.507416080e+00  8.6150049e-05
4.507446129e+00  8.6548031e-05
4.507476179e+00  8.6924007e-05
4.507506228e+00  8.7285997e-05
4.507536278e+00  8.7632084e-05
4.507566329e+00  8.7954656e-05
4.507596379e+00  8.8244453e-05
4.507626430e+00  8.8493542e-05
4.507656481e+00  8.8696870e-05
4.507686532e+00  8.8852552e-05
4.507716583e+00  8.8961207e-05
4.507746634e+00  8.9025229e-05
4.507776686e+00  8.9047724e-05
4.507806738e+00  8.9031934e-05
4.507836790e+00  8.8980897e-05
4.507866842e+00  8.8897350e-05
4.507896895e+00  8.8783773e-05
4.507926947e+00  8.8642486e-05
4.507957000e+00  8.8475716e-05
4.507987053e+00  8.8285625e-05
4.508017106e+00  8.8074258e-05
4.508047160e+00  8.7843463e-05
4.508077213e+00  8.7594770e-05
4.508107267e+00  8.7329335e-05
4.508137321e+00  8.7047899e-05
4.508167376e+00  8.6750871e-05
4.508197430e+00  8.6438528e-05
4.508227485e+00  8.6111319e-05
4.508257540e+00  8.5770227e-05
4.508287595e+00  8.5417075e-05
4.508317650e+00  8.5054651e-05
4.508347705e+00  8.4686519e-05
4.508377761e+00  8.4316498e-05
4.508407817e+00  8.3947876e-05
4.508437873e+00  8.3582577e-05
4.508467929e+00  8.3220536e-05
4.508497986e+00  8.2859504e-05
4.508528042e+00  8.2495368e-05
4.508558099e+00  8.2122891e-05
4.508588156e+00  8.1736631e-05
4.508618213e+00  8.1331779e-05
4.508648271e+00  8.0904684e-05
4.508678329e+00  8.0452992e-05
4.508708386e+00  7.9975452e-05
4.508738444e+00  7.9471519e-05
4.508768503e+00  7.8940951e-05
4.508798561e+00  7.8383504e-05
4.508828620e+00  7.7798806e-05
4.508858679e+00  7.7186377e-05
4.508888738e+00  7.6545751e-05
4.508918797e+00  7.5876604e-05
4.508948856e+00  7.5178856e-05
4.508978916e+00  7.4452725e-05
4.509008976e+00  7.3698781e-05
4.509039036e+00  7.2918067e-05
4.509069096e+00  7.2112346e-05
4.509099157e+00  7.1284438e-05
4.509129217e+00  7.0438565e-05
4.509159278e+00  6.9580490e-05
4.509189339e+00  6.8717274e-05
4.509219401e+00  6.7856541e-05
4.509249462e+00  6.7005342e-05
4.509279524e+00  6.6168885e-05
4.509309586e+00  6.5349516e-05
4.509339648e+00  6.4546287e-05
4.509369710e+00  6.3755279e-05
4.509399772e+00  6.2970552e-05
4.509429835e+00  6.2185429e-05
4.509459898e+00  6.1393720e-05
4.509489961e+00  6.0590583e-05
4.509520024e+00  5.9772890e-05
4.509550088e+00  5.8939150e-05
4.509580151e+00  5.8089148e-05
4.509610215e+00  5.7223496e-05
4.509640279e+00  5.6343232e-05
4.509670344e+00  5.5449546e-05
4.509700408e+00  5.4543626e-05
4.509730473e+00  5.3626598e-05
4.509760538e+00  5.2699505e-05
4.509790603e+00  5.1763304e-05
4.509820668e+00  5.0818844e-05
4.509850733e+00  4.9866833e-05
4.509880799e+00  4.8907810e-05
4.509910865e+00  4.7942117e-05
4.509940931e+00  4.6969889e-05
4.509970997e+00  4.5991085e-05
4.510001064e+00  4.5005514e-05
4.510031130e+00  4.4012886e-05
4.510061197e+00  4.3012844e-05
4.510091264e+00  4.2004984e-05
4.510121332e+00  4.0988866e-05
4.510151399e+00  3.9964025e-05
4.510181467e+00  3.8930040e-05
4.510211535e+00  3.7886666e-05
4.510241603e+00  3.6834071e-05
4.510271671e+00  3.5773126e-05
4.510301739e+00  3.4705671e-05
4.510331808e+00  3.3634634e-05
4.510361877e+00  3.2563888e-05
4.510391946e+00  3.1497798e-05
4.510422015e+00  3.0440535e-05
4.510452085e+00  2.9395343e-05
4.510482155e+00  2.8364007e-05
4.510512224e+00  2.7346738e-05
4.510542295e+00  2.6342542e-05
4.510572365e+00  2.5349973e-05
4.510602435e+00  2.4368015e-05
4.510632506e+00  2.3396789e-05
4.510662577e+00  2.2437843e-05
4.510692648e+00  2.1493926e-05
4.510722719e+00  2.0568366e-05
4.510752791e+00  1.9664245e-05
4.510782862e+00  1.8783688e-05
4.510812934e+00  1.7927441e-05
4.510843006e+00  1.7094870e-05
4.510873079e+00  1.6284287e-05
4.510903151e+00  1.5493488e-05
4.510933224e+00  1.4720293e-05
4.510963297e+00  1.3962975e-05
4.510993370e+00  1.3220492e-05
4.511023443e+00  1.2492539e-05
4.511053517e+00  1.1779465e-05
4.511083590e+00  1.1082120e-05
4.511113664e+00  1.0401680e-05
4.511143738e+00  9.7394862e-06
4.511173813e+00  9.0969069e-06
4.511203887e+00  8.4752370e-06
4.511233962e+00  7.8756272e-06
4.511264037e+00  7.2990428e-06
4.511294112e+00  6.7462495e-06
4.511324187e+00  6.2178208e-06
4.511354263e+00  5.7141644e-06
4.511384338e+00  5.2355589e-06
4.511414414e+00  4.7821891e-06
4.511444490e+00  4.3541762e-06
4.511474566e+00  3.9515773e-06
4.511504643e+00  3.5743642e-06
4.511534720e+00  3.2223787e-06
4.511564797e+00  2.8952820e-06
4.511594874e+00  2.5925198e-06
4.511624951e+00  2.3133158e-06
4.511655028e+00  2.0567035e-06
4.511685106e+00  1.8215853e-06
4.511715184e+00  1.6068046e-06
4.511745262e+00  1.4112085e-06
4.511775340e+00  1.2336892e-06
4.511805419e+00  1.0731988e-06
4.511835498e+00  9.2874221e-07
4.511865577e+00  7.9935864e-07
4.511895656e+00  6.8410138e-07
4.511925735e+00  5.8202292e-07
4.511955815e+00  4.9216824e-07
4.511985894e+00  4.1357599e-07
4.512015974e+00  3.4528526e-07
4.512046054e+00  2.8634539e-07
4.512076135e+00  2.3582704e-07
4.512106215e+00  1.9283284e-07
4.512136296e+00  1.5650698e-07
4.512166377e+00  1.2604317e-07
4.512196458e+00  1.0069078e-07
4.512226539e+00  7.9758774e-08
4.512256621e+00  6.2618464e-08
4.512286702e+00  4.8703499e-08
4.512316784e+00  3.7508929e-08
4.512346866e+00  2.8588821e-08
4.512376949e+00  2.1552949e-08
4.512407031e+00  1.6062886e-08
4.512437114e+00  1.1827810e-08
4.512467197e+00  8.6002176e-09
4.512497280e+00  6.1716863e-09
4.512527363e+00  4.3687498e-09
4.512557447e+00  3.0488941e-09
4.512587530e+00  2.0966855e-09
4.512617614e+00  1.4200461e-09
4.512647698e+00  9.4671265e-10
4.512677783e+00  6.2093010e-10
4.512707867e+00  4.0043435e-10
4.512737952e+00  2.5376481e-10
4.512768037e+00  1.5793648e-10
4.512798122e+00  9.6475353e-11
4.512828207e+00  5.7803995e-11
4.512858293e+00  3.3948812e-11
4.512888379e+00  1.9531137e-11
4.512918465e+00  1.0999542e-11
4.512948551e+00  6.0599451e-12
4.512978637e+00  3.2636496e-12
4.513008724e+00  1.7169886e-12
4.513038810e+00  8.8174559e-13
4.513068897e+00  4.4167767e-13
4.513098984e+00  2.1563203e-13
4.513129072e+00  1.0251950e-13
4.513159159e+00  4.7423287e-14
4.513189247e+00  2.1321952e-14
4.513219335e+00  9.3068264e-15
4.513249423e+00  3.9383190e-15
4.513279511e+00  1.6129879e-15
4.513309600e+00  6.3810153e-16
4.513339689e+00  2.4324192e-16
4.513369777e+00  8.9090403e-17
4.513399867e+00  3.1248105e-17
4.513429956e+00  1.0459540e-17
4.513460045e+00  3.3743329e-18
4.513490135e+00  1.0141408e-18
4.513520225e+00  2.8435975e-19
4.513550315e+00  7.3970313e-20
4.513580406e+00  1.7693194e-20
4.513610496e+00  3.8515575e-21
4.513640587e+00  7.5409901e-22
4.513670678e+00  1.3101009e-22
4.513700769e+00  1.9877594e-23
4.513730860e+00  2.5823568e-24
4.513760952e+00  2.7892123e-25
4.513791044e+00  2.3515360e-26
4.513821136e+00  1.2208112e-27
4.513851228e+00  2.5955815e-29
4.513881320e+00  4.7824942e-30
4.513911413e+00  1.7649320e-31
4.513941505e+00  4.2425577e-33
4.513971598e+00  6.6863242e-35
4.514001691e+00  6.5437514e-37
4.514031785e+00  1.7043263e-38
4.514061878e+00  2.1435217e-36
4.514091972e+00  2.0361933e-34
4.514122066e+00  1.2251978e-32
4.514152160e+00  4.9528909e-31
4.514182254e+00  1.4145142e-29
4.514212349e+00  2.9768714e-28
4.514242444e+00  4.7941607e-27
4.514272539e+00  6.1016799e-26
4.514302634e+00  6.3095756e-25
4.514332729e+00  5.4301924e-24
4.514362825e+00  3.9719858e-23
4.514392920e+00  2.5150881e-22
4.514423016e+00  1.4006912e-21
4.514453113e+00  6.9493757e-21
4.514483209e+00  3.1228288e-20
4.514513306e+00  1.2816913e-19
4.514543402e+00  4.8522196e-19
4.514573499e+00  1.7091105e-18
4.514603596e+00  5.6434174e-18
4.514633694e+00  1.7583044e-17
4.514663791e+00  5.1984325e-17
4.514693889e+00  1.4655136e-16
4.514723987e+00  3.9559075e-16
4.514754085e+00  1.0259602e-15
4.514784184e+00  2.5638560e-15
4.514814282e+00  6.1884494e-15
4.514844381e+00  1.4456707e-14
4.514874480e+00  3.2740327e-14
4.514904579e+00  7.1967186e-14
4.514934678e+00  1.5363230e-13
4.514964778e+00  3.1941601e-13
4.514994878e+00  6.4690642e-13
4.515024978e+00  1.2773772e-12
4.515055078e+00  2.4613239e-12
4.515085178e+00  4.6319270e-12
4.515115279e+00  8.5210595e-12
4.515145380e+00  1.5337118e-11
4.515175480e+00  2.7032706e-11
4.515205582e+00  4.6699374e-11
4.515235683e+00  7.9133379e-11
4.515265785e+00  1.3163197e-10
4.515295886e+00  2.1508198e-10
4.515325988e+00  3.4540924e-10
4.515356091e+00  5.4545308e-10
4.515386193e+00  8.4731988e-10
4.515416295e+00  1.2952523e-09
4.515446398e+00  1.9490290e-09
4.515476501e+00  2.8878871e-09
4.515506604e+00  4.2149380e-09
4.515536708e+00  6.0620286e-09
4.515566811e+00  8.5949869e-09
4.515596915e+00  1.2019180e-08
4.515627019e+00  1.6585303e-08
4.515657123e+00  2.2595311e-08
4.515687228e+00  3.0408387e-08
4.515717332e+00  4.0446809e-08
4.515747437e+00  5.3201528e-08
4.515777542e+00  6.9237207e-08
4.515807647e+00  8.9196390e-08
4.515837753e+00  1.1380242e-07
4.515867858e+00  1.4386072e-07
4.515897964e+00  1.8025804e-07
4.515928070e+00  2.2395938e-07
4.515958176e+00  2.7600232e-07
4.515988283e+00  3.3748847e-07
4.516018389e+00  4.0957201e-07
4.516048496e+00  4.9344489e-07
4.516078603e+00  5.9031857e-07
4.516108710e+00  7.0140179e-07
4.516138817e+00  8.2787412e-07
4.516168925e+00  9.7085482e-07
4.516199033e+00  1.1313665e-06
4.516229141e+00  1.3102935e-06
4.516259249e+00  1.5083338e-06
4.516289357e+00  1.7259456e-06
4.516319466e+00  1.9632859e-06
4.516349575e+00  2.2201428e-06
4.516379684e+00  2.4958596e-06
4.516409793e+00  2.7892532e-06
4.516439902e+00  3.0985232e-06
4.516470012e+00  3.4211687e-06
4.516500122e+00  3.7538953e-06
4.516530232e+00  4.0925387e-06
4.516560342e+00  4.4320093e-06
4.516590452e+00  4.7662701e-06
4.516620563e+00  5.0883754e-06
4.516650674e+00  5.3906046e-06
4.516680785e+00  5.6647524e-06
4.516710896e+00  5.9026552e-06
4.516741007e+00  6.0970504e-06
4.516771119e+00  6.2428510e-06
4.516801231e+00  6.3388501e-06
4.516831343e+00  6.3897351e-06
4.516861455e+00  6.4080988e-06
4.516891567e+00  6.4159416e-06
4.516921680e+00  6.4450557e-06
4.516951793e+00  6.5357613e-06
4.516981906e+00  6.7337896e-06
4.517012019e+00  7.0855930e-06
4.517042133e+00  7.6328983e-06
4.517072246e+00  8.4076524e-06
4.517102360e+00  9.4284913e-06
4.517132474e+00  1.0699470e-05
4.517162588e+00  1.2211162e-05
4.517192703e+00  1.3943604e-05
4.517222817e+00  1.5870188e-05
4.517252932e+00  1.7961540e-05
4.517283047e+00  2.0188712e-05
4.517313162e+00  2.2525390e-05
4.517343278e+00  2.4949176e-05
4.517373393e+00  2.7442192e-05
4.517403509e+00  2.9991225e-05
4.517433625e+00  3.2587557e-05
4.517463741e+00  3.5226469e-05
4.517493858e+00  3.7906387e-05
4.517523974e+00  4.0627710e-05
4.517554091e+00  4.3391455e-05
4.517584208e+00  4.6198016e-05
4.517614326e+00  4.9046298e-05
4.517644443e+00  5.1933439e-05
4.517674561e+00  5.4855092e-05
4.517704678e+00  5.7806091e-05
4.517734796e+00  6.0781218e-05
4.517764915e+00  6.3775774e-05
4.517795033e+00  6.6785818e-05
4.517825152e+00  6.9808104e-05
4.517855271e+00  7.2839830e-05
4.517885390e+00  7.5878407e-05
4.517915509e+00  7.8921374e-05
4.517945628e+00  8.1966506e-05
4.517975748e+00  8.5012069e-05
4.518005868e+00  8.8057089e-05
4.518035988e+00  9.1101508e-05
4.518066108e+00  9.4146128e-05
4.518096228e+00  9.7192337e-05
4.518126349e+00  1.0024167e-04
4.518156470e+00  1.0329531e-04
4.518186591e+00  1.0635373e-04
4.518216712e+00  1.0941645e-04
4.518246834e+00  1.1248210e-04
4.518276955e+00  1.1554860e-04
4.518307077e+00  1.1861356e-04
4.518337199e+00  1.2167455e-04
4.518367321e+00  1.2472943e-04
4.518397444e+00  1.2777635e-04
4.518427567e+00  1.3081371e-04
4.518457689e+00  1.3383976e-04
4.518487812e+00  1.3685225e-04
4.518517936e+00  1.3984782e-04
4.518548059e+00  1.4282166e-04
4.518578183e+00  1.4576713e-04
4.518608307e+00  1.4867562e-04
4.518638431e+00  1.5153660e-04
4.518668555e+00  1.5433772e-04
4.518698679e+00  1.5706496e-04
4.518728804e+00  1.5970271e-04
4.518758929e+00  1.6223368e-04
4.518789054e+00  1.6463872e-04
4.518819179e+00  1.6689636e-04
4.518849305e+00  1.6898243e-04
4.518879430e+00  1.7086941e-04
4.518909556e+00  1.7252595e-04
4.518939682e+00  1.7391652e-04
4.518969809e+00  1.7500083e-04
4.518999935e+00  1.7573339e-04
4.519030062e+00  1.7606306e-04
4.519060189e+00  1.7593243e-04
4.519090316e+00  1.7527724e-04
4.519120443e+00  1.7402609e-04
4.519150570e+00  1.7210133e-04
4.519180698e+00  1.6942272e-04
4.519210826e+00  1.6591608e-04
4.519240954e+00  1.6152934e-04
4.519271082e+00  1.5625756e-04
4.519301211e+00  1.5017570e-04
4.519331339e+00  1.4347359e-04
